0,1,2,3,4,5,6,7
0.60679615,0.4248366,0.26086962,0.43646407,0.5855856,0.48795182,0.36567163,0.6535433
0.60679615,0.42483664,0.26086962,0.43646407,0.5855856,0.48795182,0.36567166,0.6535434
0.60679615,0.4248366,0.26086962,0.43646413,0.5855856,0.4879518,0.36567163,0.65354335
0.60679615,0.42483658,0.26086953,0.43646407,0.5855856,0.48795182,0.36567163,0.65354335
0.6067961,0.4248366,0.26086956,0.4364641,0.58558553,0.48795182,0.36567166,0.6535433
0.60679615,0.42483664,0.26086956,0.43646407,0.5855856,0.4879518,0.3656716,0.65354335
0.6067961,0.42483658,0.26086956,0.43646407,0.5855855,0.48795182,0.36567158,0.6535433
0.60679615,0.42483664,0.26086956,0.43646404,0.5855856,0.48795182,0.36567163,0.6535433
0.60679615,0.4248366,0.26086956,0.436464,0.5855856,0.48795182,0.36567163,0.6535433
0.60679615,0.42483664,0.26086956,0.43646407,0.5855856,0.48795182,0.3656717,0.6535433
0.6067961,0.42483658,0.26086956,0.43646407,0.58558553,0.4879518,0.36567166,0.6535434
0.6067961,0.42483658,0.26086956,0.4364641,0.5855856,0.48795182,0.36567163,0.65354335
0.6067961,0.42483664,0.2608696,0.4364641,0.5855856,0.48795182,0.36567163,0.6535433
0.6067961,0.42483664,0.26086956,0.43646404,0.58558553,0.48795182,0.3656716,0.65354335
0.6067961,0.42483655,0.26086962,0.4364641,0.5855856,0.48795182,0.36567166,0.65354335
0.6067961,0.42483667,0.2608696,0.4364641,0.58558553,0.48795182,0.36567166,0.6535434
0.60679615,0.42483658,0.2608696,0.43646413,0.58558553,0.48795182,0.3656717,0.6535433
0.6067961,0.4248366,0.2608696,0.4364641,0.5855856,0.48795182,0.3656717,0.65354335
0.6067961,0.42483664,0.2608695,0.43646407,0.5855856,0.4879518,0.36567163,0.65354335
0.6067961,0.4248366,0.26086962,0.43646407,0.5855856,0.48795182,0.3656717,0.6535433
0.6067961,0.42483664,0.26086956,0.43646413,0.5855856,0.4879518,0.36567163,0.65354335
0.6067961,0.4248366,0.26086962,0.43646407,0.5855856,0.48795184,0.36567163,0.65354323
0.6067961,0.4248366,0.2608696,0.4364641,0.5855855,0.48795184,0.36567163,0.6535433
0.60679615,0.42483658,0.26086962,0.43646407,0.58558553,0.48795182,0.36567163,0.6535433
0.6067961,0.42483664,0.26086956,0.43646407,0.5855856,0.48795187,0.36567166,0.65354335
0.60679615,0.42483658,0.26086956,0.4364641,0.5855856,0.4879518,0.3656717,0.65354335
0.6067961,0.4248366,0.26086956,0.43646407,0.58558553,0.48795182,0.36567163,0.65354335
0.55825233,0.4509804,0.5,0.4198895,0.472973,0.4759036,0.32089555,0.47244096
0.55825245,0.45098042,0.49999997,0.4198895,0.472973,0.4759036,0.3208955,0.47244096
0.55825245,0.4509804,0.5,0.4198895,0.47297296,0.47590363,0.3208955,0.4724409
0.5582524,0.4509804,0.5,0.41988945,0.47297296,0.4759036,0.32089555,0.4724409
0.55825245,0.4509804,0.5,0.41988948,0.47297293,0.47590366,0.32089552,0.47244096
0.55825233,0.45098034,0.49999997,0.41988945,0.47297293,0.47590366,0.32089555,0.4724409
0.55825245,0.45098037,0.5,0.4198895,0.472973,0.47590366,0.3208955,0.47244093
0.4271844,0.4640523,0.6956521,0.51933706,0.5,0.42771083,0.41044772,0.5118111
0.4271845,0.4640523,0.6956522,0.519337,0.5,0.4277109,0.41044778,0.51181096
0.4271844,0.46405226,0.6956522,0.519337,0.50000006,0.42771086,0.41044775,0.511811
0.4271845,0.46405226,0.6956522,0.519337,0.49999997,0.42771083,0.41044772,0.5118111
0.4271845,0.46405226,0.6956522,0.519337,0.5,0.42771083,0.41044775,0.511811
0.42718443,0.46405232,0.6956521,0.519337,0.49999997,0.42771083,0.41044778,0.511811
0.4271844,0.4640523,0.6956522,0.51933706,0.5,0.42771083,0.41044775,0.511811
0.42718443,0.46405232,0.6956522,0.519337,0.5,0.4277109,0.41044778,0.51181096
0.42718443,0.4640523,0.69565225,0.51933706,0.5,0.42771086,0.41044775,0.511811
0.42718443,0.46405226,0.6956522,0.519337,0.5,0.42771086,0.41044775,0.511811
0.42718443,0.4640523,0.6956521,0.51933706,0.49999997,0.42771086,0.41044775,0.5118111
0.4271844,0.4640523,0.6956521,0.51933706,0.5,0.42771086,0.41044772,0.511811
0.42718446,0.46405232,0.6956521,0.51933706,0.5,0.42771083,0.41044772,0.511811
0.42718443,0.46405235,0.69565225,0.519337,0.49999994,0.4277108,0.41044775,0.511811
0.42718446,0.4640523,0.6956522,0.519337,0.49999997,0.4277109,0.41044775,0.511811
0.4271844,0.4640523,0.6956522,0.519337,0.49999997,0.4277109,0.41044775,0.511811
0.63106793,0.5163399,0.6304348,0.60221,0.5315315,0.4638554,0.82089555,0.8267716
0.63106793,0.51633984,0.63043475,0.60221,0.5315315,0.46385545,0.82089555,0.8267716
0.0,0.4183007,0.68115944,0.57458556,0.46846843,0.40361446,0.5447761,0.39370078
0.0,0.4183007,0.6811594,0.57458556,0.46846843,0.40361446,0.5447761,0.39370078
0.0,0.4183007,0.68115944,0.5745857,0.46846846,0.40361446,0.5447761,0.3937008
0.0,0.41830063,0.68115944,0.5745856,0.4684685,0.40361443,0.5447761,0.39370078
0.0,0.41830066,0.68115944,0.5745857,0.4684685,0.38125002,0.5447762,0.39370078
0.0,0.41830066,0.6811594,0.5745857,0.46846846,0.38125002,0.54477614,0.39370075
0.0,0.41830066,0.6811594,0.5745856,0.46846846,0.38125002,0.54477614,0.3937008
0.0,0.4183007,0.6811595,0.5745856,0.46846846,0.38125002,0.54477614,0.39370075
0.0,0.41830066,0.68115944,0.5745856,0.46846843,0.38125,0.5447761,0.39370078
0.0,0.41830072,0.68115944,0.5745856,0.46846843,0.38125002,0.5447761,0.39370078
0.0,0.41830063,0.68115944,0.5745856,0.46846846,0.38125,0.54477614,0.39370084
0.0,0.4183007,0.6811595,0.5745857,0.46846846,0.38125002,0.54477614,0.39370084
0.0,0.4183007,0.6811594,0.5745857,0.4684685,0.38124996,0.5447761,0.39370084
0.6796116,0.5163399,0.5942029,0.4530387,0.490991,0.3375,1.0,0.8661417
0.6796117,0.5163399,0.5942029,0.45303863,0.49099097,0.3375,1.0,0.86614174
0.6796116,0.51633984,0.59420294,0.45303866,0.490991,0.3375,1.0,0.8661418
0.6796116,0.51633984,0.59420294,0.45303863,0.49099103,0.3375,1.0000001,0.8661417
0.6796116,0.5163399,0.59420294,0.45303866,0.490991,0.3375,1.0000001,0.8661418
0.67961156,0.5163399,0.5942028,0.45303863,0.4909909,0.33750004,1.0,0.8661418
0.6796116,0.5163399,0.59420294,0.4530387,0.490991,0.33750004,1.0,0.86614174
0.6796116,0.51633984,0.5942029,0.45303866,0.49099097,0.33750004,0.99999994,0.8661418
0.6796117,0.5163399,0.59420294,0.45303872,0.490991,0.33749998,0.9999999,0.8661418
0.6162791,0.51633984,0.5942028,0.45303872,0.49099094,0.33749998,1.0,0.8661417
0.61627907,0.5163399,0.59420294,0.4530387,0.4909909,0.3375,1.0,0.8661418
0.61627907,0.51633984,0.59420294,0.45303872,0.49099103,0.33749998,1.0,0.8661418
0.616279,0.5163399,0.5942029,0.45303863,0.49099097,0.33749998,0.9999999,0.86614174
0.61627907,0.5163399,0.5942029,0.45303866,0.49099097,0.33749998,1.0,0.8661417
0.61627907,0.5163399,0.594203,0.45303872,0.49099097,0.33750004,1.0,0.8661418
0.61627907,0.51633984,0.5942028,0.45303863,0.49099094,0.33750004,1.0,0.8661417
0.6162791,0.5163399,0.5942029,0.4530387,0.490991,0.3375,1.0,0.8661418
0.61627907,0.5163399,0.5942028,0.45303863,0.49099097,0.3375,1.0,0.86614174
0.616279,0.5163399,0.5942029,0.45303866,0.49099097,0.33750007,1.0,0.86614174
0.616279,0.51633996,0.5942029,0.45303866,0.49099097,0.33333334,1.0,0.8661418
0.61627907,0.51633984,0.5942029,0.45303866,0.490991,0.3333333,1.0,0.8661418
0.3604651,0.4901961,0.32608694,0.43646404,0.51351357,0.7232704,0.94029856,0.5905512
0.53488374,0.53594774,0.5217392,0.40331492,0.545045,0.6603774,0.6343284,0.35433066
0.5348837,0.5359477,0.5217392,0.40331492,0.545045,0.66037744,0.63432837,0.35433066
0.53488374,0.5359477,0.5217392,0.40331492,0.545045,0.6603774,0.63432837,0.35433066
0.5348837,0.53594774,0.5217391,0.40331495,0.545045,0.6603774,0.6343284,0.35433072
0.53488374,0.5359478,0.5217391,0.40331495,0.54504496,0.6603773,0.6343283,0.35433066
0.4127907,0.5424837,0.6666666,0.4751381,0.47747743,0.40880504,0.6268657,0.59842515
0.4127907,0.5424836,0.6666666,0.4751381,0.47747746,0.40880504,0.6268656,0.5984252
0.4127907,0.5424836,0.6666667,0.4751381,0.4774774,0.408805,0.62686574,0.59842515
0.41279072,0.5424837,0.6666667,0.4751381,0.4774774,0.408805,0.6315789,0.59842515
0.41279072,0.5424836,0.6666667,0.47513807,0.4774774,0.408805,0.6315789,0.5984252
0.6337209,0.66013074,0.7246377,0.71270716,0.5990991,0.836478,0.90977436,0.8110237
0.6337209,0.66013074,0.7246376,0.7127072,0.5990991,0.836478,0.9097744,0.8110237
0.6337209,0.66013074,0.7246376,0.71270716,0.5990991,0.83647794,0.9097743,0.81102365
0.6337209,0.66013074,0.7246376,0.71270716,0.5990991,0.836478,0.9097744,0.8110236
0.633721,0.6601307,0.7246377,0.71270716,0.5990991,0.836478,0.9097743,0.8110237
0.63372093,0.66013074,0.72463775,0.7127072,0.5990991,0.836478,0.9097744,0.8110236
0.63372093,0.6601307,0.7246377,0.71270716,0.5990991,0.836478,0.9097744,0.81102365
0.63372093,0.66013074,0.7246377,0.71270716,0.5990991,0.83647805,0.9097744,0.8110236
0.6337209,0.66013074,0.7246377,0.71270716,0.5990991,0.836478,0.9097744,0.81102365
0.63372093,0.66013074,0.7246377,0.7127073,0.5990991,0.836478,0.9097744,0.8110236
0.63372093,0.66013074,0.7246376,0.71270716,0.59909916,0.8364779,0.9097744,0.8110236
0.6337209,0.66013074,0.7246377,0.7127072,0.59909904,0.83647794,0.9097744,0.8110236
0.633721,0.6601307,0.7246376,0.71270716,0.5990991,0.836478,0.9097744,0.8110237
0.6337209,0.66013074,0.7246376,0.7127072,0.59909904,0.836478,0.90977436,0.8110236
0.633721,0.6601307,0.7246377,0.7127072,0.59909904,0.836478,0.9097744,0.8110236
0.63372093,0.6601307,0.7246377,0.71270716,0.59909916,0.836478,0.9097744,0.81102365
0.3139535,0.4640523,0.42028987,0.50828725,0.6756757,0.98113203,0.60150373,0.4724409
0.32558137,0.50980395,0.6449275,0.50276244,0.5135135,0.23270445,0.0,0.4173228
0.32558137,0.50980395,0.64492756,0.5027625,0.51351345,0.23270442,0.0,0.4173228
0.32558143,0.50980395,0.6449275,0.5027625,0.5135135,0.23270445,0.0,0.4173228
0.32558134,0.50980395,0.64492756,0.50276244,0.51351345,0.23270443,0.0,0.4173228
0.32558143,0.5098039,0.6449275,0.50276244,0.5135135,0.23270442,0.0,0.4173228
0.3255814,0.50980395,0.64492756,0.5027624,0.51351357,0.23270443,0.0,0.4173228
0.32558137,0.5098039,0.6449275,0.50276244,0.5135135,0.2327044,0.0,0.41732287
0.3255814,0.5098039,0.64492756,0.50276244,0.51351357,0.23270439,0.0,0.4173228
0.32558143,0.5098039,0.6449275,0.50276244,0.5135135,0.23270443,0.0,0.41732284
0.32558143,0.50980395,0.6449276,0.50276244,0.5135135,0.23270443,0.0,0.41732287
0.32558134,0.50980395,0.64492756,0.50276244,0.5135135,0.23270442,0.0,0.4173228
0.32558137,0.509804,0.64492756,0.5027624,0.5135135,0.2327044,0.0,0.4173228
0.32558137,0.5098039,0.6449275,0.5027624,0.5135135,0.23270443,0.0,0.4173228
0.3255814,0.5098039,0.64492756,0.50276244,0.5135135,0.23270437,0.0,0.4173228
0.32558134,0.5098039,0.64492756,0.50276244,0.5135135,0.23270442,0.0,0.41732284
0.3255814,0.50980395,0.64492756,0.5027624,0.51351357,0.23270443,0.0,0.41732284
0.3255814,0.5098039,0.64492756,0.50276244,0.51351345,0.23270445,0.0,0.41732287
0.3255814,0.50980395,0.6449275,0.50276244,0.5135135,0.2327044,0.0,0.4173228
0.32558137,0.5098039,0.6449275,0.5027625,0.5135135,0.23270442,0.0,0.4173228
0.3255814,0.50980395,0.64492756,0.50276244,0.5135135,0.23270442,0.0,0.41732287
0.32558137,0.5098039,0.6449275,0.5027624,0.51351345,0.23270443,0.0,0.4173228
0.27906978,0.50980395,0.6811595,0.48618785,0.5855856,0.3584906,0.5864662,0.55118114
0.42441863,0.5294118,0.54347825,0.49723753,0.45495492,0.5660377,0.40601504,0.18897632
0.4244186,0.52941173,0.5434783,0.4972376,0.45495495,0.5660378,0.40601504,0.18897638
0.4244186,0.5294118,0.54347825,0.49723756,0.45495492,0.5660378,0.40601498,0.18897638
0.42441857,0.5294118,0.5434783,0.4972376,0.45495492,0.5660378,0.406015,0.1889764
0.42441857,0.5294118,0.54347825,0.49723762,0.45495498,0.5660378,0.40601507,0.18897638
0.42441863,0.52941173,0.54347825,0.49723756,0.45495492,0.5660378,0.40601498,0.18897635
0.42441863,0.52941173,0.54347825,0.4972375,0.45495495,0.5660377,0.406015,0.18897632
0.4244186,0.5294118,0.54347825,0.49723756,0.45495492,0.5660377,0.40601504,0.18897635
0.42441857,0.5294118,0.54347825,0.4972376,0.45495492,0.5660378,0.40151516,0.18897635
0.4244186,0.52941173,0.54347825,0.4972376,0.45495495,0.5660377,0.40151516,0.18897635
0.4244186,0.5294118,0.5434783,0.49723756,0.45495498,0.5660378,0.4015152,0.18897635
0.42441863,0.52941173,0.54347825,0.49723756,0.45495495,0.5660377,0.40151516,0.18897632
0.4244186,0.5294118,0.54347825,0.49723753,0.45495492,0.5660378,0.4015152,0.18897635
0.4244186,0.52941185,0.5434783,0.49723756,0.45495492,0.5660377,0.40151513,0.1889764
0.4244186,0.52941173,0.5434783,0.49723753,0.45495492,0.5660378,0.40151513,0.18897635
0.4244186,0.5294118,0.54347825,0.49723756,0.45495498,0.5660378,0.40151513,0.18897635
0.4244186,0.5294118,0.54347825,0.4972376,0.45495495,0.5660377,0.40151513,0.18897635
0.4244186,0.5294118,0.54347825,0.49723753,0.45495492,0.5660377,0.40151513,0.1889764
0.42441857,0.52941173,0.5434783,0.4972376,0.45495492,0.5660377,0.4015152,0.18897638
0.42441857,0.5294118,0.54347825,0.49723753,0.45495498,0.5660378,0.4015152,0.18897638
0.42441857,0.52941173,0.54347825,0.4972376,0.45495495,0.5660378,0.4015152,0.1889764
0.4244186,0.5294118,0.54347825,0.49723753,0.45495495,0.5660378,0.4015152,0.1889764
0.50581396,0.4705883,0.42028984,0.35359114,0.41441447,0.18238994,0.35606062,0.66141737
0.50581396,0.47058827,0.42028987,0.35359114,0.41441444,0.18239,0.35606062,0.66141737
0.50581396,0.4705882,0.42028987,0.35359117,0.41441435,0.18239,0.3560606,0.66141737
0.50581396,0.47058827,0.42028987,0.35359114,0.41441438,0.18238994,0.35606056,0.6614173
0.5058139,0.47058824,0.4202899,0.35359114,0.41441444,0.18239,0.35606062,0.6614173
0.55232555,0.56209147,0.7391304,0.59668505,0.5405406,0.45911956,0.69696975,0.8188977
0.55232555,0.5620915,0.7391305,0.59668505,0.5405405,0.45911953,0.6969696,0.81889755
0.55232555,0.5620915,0.7391305,0.59668505,0.54054046,0.4591195,0.6969697,0.81889766
0.55232555,0.5620915,0.73913044,0.5966851,0.5405405,0.45911953,0.69696975,0.8188977
0.55232555,0.56209147,0.7391305,0.59668505,0.5405406,0.45911947,0.6969697,0.8188976
0.5523256,0.5620915,0.73913044,0.59668505,0.54054046,0.45911956,0.6969696,0.8188977
0.5523256,0.56209147,0.7391305,0.5966851,0.5405405,0.45911953,0.6969697,0.81889766
0.55232555,0.5620915,0.73913044,0.59668505,0.5405405,0.4591195,0.69696975,0.8188976
0.5290698,0.50980395,0.48550728,0.50828725,0.5810811,0.5345912,0.5075758,0.71653545
0.5290698,0.50980395,0.48550725,0.50828725,0.58108103,0.5345912,0.5075757,0.71653545
0.5290698,0.50980395,0.48550728,0.5082873,0.5810811,0.5345912,0.50757575,0.71653545
0.5290698,0.50980395,0.48550728,0.5082873,0.58108103,0.5345912,0.50757575,0.7165355
0.5290698,0.5098039,0.48550722,0.5082873,0.5810811,0.5345912,0.50757575,0.71653545
0.5290698,0.5098039,0.48550725,0.5082873,0.5810811,0.5345912,0.50757575,0.7165355
0.5290697,0.50980395,0.48550725,0.5082873,0.5810811,0.5345912,0.50757575,0.7165355
0.5290697,0.5098039,0.48550728,0.5082873,0.58108103,0.5345912,0.5075758,0.71653545
0.5290697,0.509804,0.4855073,0.5082873,0.58108103,0.5345912,0.5075758,0.71653545
0.5290698,0.5098039,0.48550725,0.5082873,0.5810811,0.5345912,0.50757575,0.71653545
0.5290698,0.5098039,0.48550728,0.5082873,0.58108103,0.5345912,0.5075757,0.7165354
0.5290698,0.50980395,0.48550725,0.5082873,0.58108103,0.5345912,0.50757575,0.71653545
0.5290697,0.50980395,0.48550722,0.5082873,0.58108115,0.5345912,0.5075758,0.71653545
0.5290698,0.5098039,0.48550725,0.5082873,0.58108103,0.53459114,0.50757575,0.71653545
0.5290697,0.50980395,0.48550734,0.5082873,0.5810811,0.53459126,0.50757575,0.71653545
0.5290697,0.50980395,0.4855073,0.50828725,0.58108103,0.5345912,0.50757575,0.7165354
0.43023255,0.5686274,0.65942025,0.49171272,0.4234234,0.5031446,0.51515156,0.55905515
0.29069763,0.3267974,0.34782612,0.5801105,0.5675676,0.35849056,0.25757578,0.41732287
0.2906977,0.32679743,0.34782603,0.5801105,0.5675676,0.3584906,0.25757575,0.4173228
0.29069766,0.32679743,0.34782606,0.58011043,0.5675676,0.3584906,0.25757575,0.4173228
0.29069766,0.3267974,0.34782612,0.58011055,0.5675675,0.3584906,0.25757575,0.4173228
0.29069763,0.32679743,0.3478261,0.5801105,0.5675675,0.35849053,0.25757575,0.41732275
0.29069763,0.32679743,0.34782612,0.58011055,0.5675675,0.3584906,0.25757575,0.41732287
0.2906977,0.3267974,0.34782606,0.58011055,0.5675675,0.3584906,0.25757572,0.4173228
0.2906977,0.32679737,0.34782606,0.5801105,0.5675676,0.3584906,0.2575758,0.41732284
0.2906977,0.32679743,0.34782612,0.5801105,0.5675676,0.3584906,0.25757578,0.41732287
0.29069766,0.3267974,0.34782612,0.5801105,0.5675675,0.35849053,0.25757572,0.41732287
0.29069766,0.3267974,0.34782612,0.58011043,0.56756747,0.3584906,0.25757575,0.41732284
0.2906977,0.3267974,0.3478261,0.5801105,0.56756747,0.3584906,0.25757584,0.41732287
0.29069766,0.32679743,0.34782606,0.58011055,0.5675675,0.3584906,0.25757578,0.4173228
0.29069763,0.3267974,0.34782606,0.5801105,0.5675675,0.35849056,0.25757572,0.4173228
0.29069766,0.32679737,0.3478261,0.5801105,0.5675675,0.35849062,0.25757572,0.41732284
0.2906977,0.3267974,0.34782606,0.58011043,0.5675675,0.35849056,0.25757575,0.4173228
0.2906977,0.32679743,0.34782606,0.58011043,0.5675675,0.3584906,0.2575758,0.41732287
0.29069766,0.32679743,0.34782612,0.5801105,0.5675676,0.3584906,0.2575758,0.4173228
0.2906977,0.32679737,0.34782606,0.5801105,0.56756747,0.3584906,0.25757578,0.41732284
0.2906977,0.3267974,0.3478261,0.5801105,0.5675676,0.3584906,0.25757572,0.41732275
0.2906977,0.32679743,0.34782612,0.58011055,0.5675675,0.35849056,0.25757578,0.4173228
0.5465116,0.6013073,0.65942025,0.4640884,0.48198196,0.4842767,0.5151515,0.66141725
0.69186044,0.62745106,0.68115944,0.46408832,0.47747743,0.44025156,0.5530304,0.5748031
0.6918605,0.627451,0.68115944,0.46408838,0.4774775,0.44025162,0.5530303,0.5748031
0.69186044,0.627451,0.68115944,0.46408835,0.47747746,0.44025156,0.5530304,0.5748031
0.69186044,0.627451,0.68115944,0.46408838,0.47747743,0.44025156,0.5530303,0.5748032
0.69186044,0.62745094,0.6811595,0.4640884,0.47747746,0.44025156,0.55303025,0.5748031
0.69186044,0.627451,0.68115944,0.4640884,0.47747743,0.44025162,0.5530303,0.5748031
0.69186044,0.627451,0.68115944,0.46408835,0.47747746,0.4402516,0.55303025,0.5748031
0.69186044,0.62745094,0.6811594,0.46408835,0.4774775,0.44025156,0.5530303,0.5748032
0.6918605,0.62745106,0.6811594,0.4640884,0.47747743,0.44025156,0.5530303,0.57480323
0.6918605,0.62745094,0.68115944,0.4640884,0.47747752,0.44025156,0.5530303,0.5748031
0.69186044,0.627451,0.6811594,0.46408838,0.4774775,0.44025156,0.5530304,0.5748032
0.6918605,0.627451,0.68115944,0.46408838,0.47747746,0.44025156,0.5530303,0.5748032
0.69186044,0.62745106,0.6811594,0.4640884,0.47747746,0.4402516,0.5530303,0.5748031
0.69186044,0.62745094,0.6811595,0.4640884,0.4774775,0.44025162,0.5530303,0.5748032
0.69186044,0.627451,0.68115944,0.46408835,0.47747752,0.4402516,0.55303025,0.5748031
0.69186044,0.627451,0.68115944,0.4640884,0.47747743,0.44025156,0.5530303,0.5748032
0.69186044,0.62745094,0.6811595,0.4640884,0.4774775,0.4402516,0.5530303,0.57480323
0.69186044,0.627451,0.68115944,0.46408835,0.47747743,0.4402516,0.5530304,0.5748031
0.6918605,0.627451,0.68115944,0.46408838,0.4774775,0.4402516,0.5530304,0.5748032
0.6918605,0.627451,0.6811594,0.4640884,0.47747746,0.4402516,0.5530304,0.5748032
0.69186044,0.62745094,0.6811595,0.4640884,0.4774775,0.44025156,0.55303025,0.5748032
0.48255813,0.5686274,0.6086957,0.5469613,0.5315316,0.6792453,1.0,0.5511812
0.44186047,0.60784316,0.84057975,0.6132597,0.45495492,0.4716981,0.8863637,0.6929134
0.44186047,0.60784316,0.8405796,0.6132596,0.4549549,0.47169814,0.88636357,0.6929134
0.4418604,0.60784316,0.84057975,0.61325973,0.45495495,0.47169816,0.8863636,0.69291335
0.44186044,0.60784316,0.8405797,0.6132597,0.45495498,0.4716981,0.8863636,0.6929134
0.4418605,0.60784316,0.8405796,0.6132597,0.45495495,0.47169814,0.8863636,0.6929134
0.44186047,0.6078431,0.8405797,0.6132597,0.45495492,0.47169808,0.8863636,0.6929135
0.44186047,0.6078432,0.84057975,0.6132597,0.45495486,0.4716982,0.8863636,0.6929134
0.44186044,0.60784316,0.8405796,0.6132596,0.45495498,0.47169814,0.8863636,0.6929134
0.44186047,0.60784316,0.84057975,0.6132596,0.45495495,0.4716981,0.8863636,0.6929134
0.4418605,0.60784316,0.8405797,0.6132597,0.45495492,0.4716981,0.936,0.69291335
0.44186044,0.60784316,0.8405796,0.6132596,0.45495492,0.4716981,0.9359999,0.6929134
0.44186047,0.6078431,0.84057975,0.6132597,0.45495498,0.4716981,0.936,0.6929134
0.4418605,0.6078431,0.84057975,0.6132597,0.45495498,0.47169814,0.9359999,0.69291335
0.44186047,0.60784316,0.84057975,0.6132597,0.45495504,0.47169814,0.9359999,0.6929134
0.20930229,0.41830063,0.6521739,0.39779,0.39639634,0.23899369,0.248,0.2598425
0.36627907,0.5098039,0.5507246,0.54143643,0.5225225,0.42767298,0.49600002,0.55905515
0.36627907,0.5098039,0.5507247,0.5414365,0.5225225,0.42767292,0.49599996,0.55905515
0.36627904,0.50980395,0.5507246,0.54143643,0.5225225,0.427673,0.49600002,0.55905515
0.36627904,0.50980395,0.5507246,0.54143643,0.52252245,0.42767298,0.49600002,0.5590551
0.36627907,0.50980395,0.5507246,0.5414364,0.5225225,0.42767292,0.49600005,0.5590551
0.36627904,0.50980395,0.5507246,0.54143643,0.5225225,0.42767295,0.496,0.55905515
0.36627904,0.50980395,0.5507247,0.54143643,0.5225225,0.42767298,0.49600002,0.5590551
0.36627904,0.5098039,0.5507246,0.54143643,0.52252245,0.42767292,0.49600002,0.5590551
0.36627904,0.50980395,0.5507246,0.5414365,0.5225225,0.42767295,0.49599996,0.5590551
0.36627907,0.509804,0.5507246,0.5414365,0.52252257,0.42767298,0.496,0.5590551
0.36627907,0.5098039,0.5507246,0.5414365,0.5225225,0.42767298,0.496,0.55905515
0.36627907,0.50980395,0.5507246,0.5414365,0.52252257,0.42767298,0.49599996,0.55905515
0.36627907,0.50980395,0.5507246,0.54143643,0.5225225,0.42767295,0.49600002,0.55905515
0.36627907,0.5098039,0.5507246,0.5414365,0.5225225,0.42767292,0.496,0.55905515
0.36627904,0.50980395,0.5507246,0.5414365,0.52252257,0.427673,0.496,0.55905515
0.36627907,0.5098039,0.5507246,0.5414364,0.5225225,0.42767295,0.49599996,0.5590551
0.36627907,0.50980395,0.5507246,0.54143643,0.52252245,0.42767298,0.496,0.5590551
0.36627907,0.50980395,0.5507246,0.54143643,0.52252257,0.42767298,0.49600008,0.5590551
0.36627907,0.5098039,0.5507247,0.5414365,0.52252257,0.42767292,0.49600005,0.55905515
0.36627904,0.50980395,0.5507247,0.5414364,0.5225225,0.42767298,0.496,0.55905515
0.39534885,0.49019605,0.5652173,0.5469613,0.59459454,0.44654092,0.552,0.6614173
0.39534882,0.4901961,0.5652174,0.5469613,0.5945946,0.44654092,0.55200005,0.66141725
0.2151163,0.4248366,0.5072464,0.47513807,0.59459454,0.3836478,0.408,0.37795275
0.21511628,0.42483664,0.5072464,0.4751382,0.59459454,0.38364783,0.40799996,0.3779527
0.21511629,0.42483658,0.50724643,0.4751381,0.5945946,0.3836478,0.40799993,0.37795278
0.2151163,0.42483664,0.5072464,0.4751381,0.59459466,0.3836478,0.408,0.37795275
0.21511626,0.42483658,0.5072463,0.47513816,0.59459454,0.3836478,0.408,0.37795275
0.21511626,0.42483664,0.5072464,0.4751381,0.5945946,0.3836478,0.408,0.37795275
0.21511626,0.42483664,0.5072464,0.4751381,0.59459466,0.3836478,0.408,0.3779528
0.21511626,0.4248366,0.5072464,0.4751381,0.59459454,0.3836478,0.408,0.37795275
0.21511626,0.4248367,0.5072463,0.47513813,0.5945946,0.38364774,0.40799993,0.37795275
0.21511626,0.42483664,0.5072464,0.4751381,0.5945946,0.3836478,0.40800002,0.37795275
0.21511629,0.4248366,0.5072464,0.47513813,0.59459454,0.3836478,0.408,0.37795278
0.21511628,0.42483658,0.5072464,0.47513813,0.59459454,0.3836478,0.40800002,0.3779527
0.4709302,0.41830063,0.44927537,0.47513813,0.6126126,0.6415095,0.80799997,0.97637796
0.47093025,0.4183007,0.44927537,0.47513816,0.6126126,0.6415094,0.80799985,0.97637796
0.47093022,0.4183007,0.44927537,0.47513813,0.61261255,0.6415095,0.80799997,0.9763781
0.4709302,0.41830063,0.44927534,0.4751381,0.6126126,0.6415094,0.8079999,0.97637796
0.47093022,0.4183006,0.4492753,0.4751381,0.6126126,0.6415094,0.8080001,0.97637796
0.47093025,0.4183007,0.44927537,0.47513807,0.61261266,0.6415095,0.80799997,0.97637796
0.47093022,0.41830066,0.44927534,0.47513807,0.6126126,0.6415094,0.80799997,0.97637796
0.47093028,0.41830063,0.4492753,0.4751381,0.61261255,0.6415095,0.80799997,0.97637796
0.47093022,0.41830066,0.4492753,0.4751381,0.6126126,0.64150953,0.80799997,0.97637796
0.5697674,0.4640523,0.3840579,0.34806627,0.5450451,0.59748423,0.6,0.48818898
0.5697674,0.46405226,0.384058,0.34806624,0.5450451,0.59748435,0.59999996,0.48818898
0.5697675,0.46405235,0.38405797,0.34806624,0.545045,0.59748435,0.59999996,0.48818895
0.5697674,0.4640523,0.384058,0.34806627,0.545045,0.59748423,0.6,0.48818895
0.5697675,0.46405226,0.38405794,0.3480663,0.5450451,0.5974843,0.59999996,0.48818892
0.5697675,0.46405232,0.38405794,0.34806633,0.545045,0.59748435,0.6,0.48818895
0.56976736,0.46405232,0.384058,0.34806627,0.54504496,0.59748435,0.59999996,0.488189
0.5697674,0.46405235,0.384058,0.34806627,0.5450451,0.5974843,0.59999996,0.48818898
0.5697675,0.46405226,0.38405794,0.34806627,0.5450451,0.59748435,0.6,0.488189
0.56976736,0.46405232,0.384058,0.34806627,0.5450451,0.5974843,0.59999996,0.48818892
0.5697675,0.4640523,0.38405794,0.34806633,0.545045,0.5974843,0.6000001,0.48818898
0.5697675,0.46405232,0.38405794,0.34806627,0.5450451,0.5974843,0.6,0.488189
0.5697674,0.46405226,0.38405794,0.3480663,0.5450451,0.5974843,0.6,0.48818895
0.5697675,0.46405232,0.38405788,0.34806627,0.5450451,0.5974843,0.59999996,0.48818898
0.56976736,0.46405232,0.38405797,0.34806627,0.545045,0.59748423,0.6,0.48818904
0.16279072,0.43790847,0.5362318,0.4640884,0.45945942,0.3144654,0.096000075,0.25984251
0.46511623,0.4509804,0.5289855,0.38674033,0.3783783,0.20125787,0.6320001,0.44094485
0.46511626,0.45098042,0.5289855,0.38674033,0.3783784,0.20125784,0.63199997,0.44094488
0.46511623,0.4509804,0.5289855,0.38674033,0.3783784,0.2012579,0.6320001,0.4409449
0.4651163,0.45098048,0.5289855,0.38674033,0.37837842,0.20125787,0.6319999,0.44094485
0.46511626,0.45098045,0.52898556,0.38674036,0.37837836,0.20125788,0.63199997,0.44094485
0.4651163,0.45098037,0.5289855,0.38674033,0.3783784,0.20125785,0.632,0.44094488
0.46511626,0.45098034,0.5289855,0.38674033,0.37837833,0.20125787,0.6319999,0.4409449
0.4651163,0.45098037,0.5289855,0.38674033,0.3783784,0.2012579,0.632,0.44094488
0.4651163,0.4509804,0.52898544,0.38674036,0.37837833,0.20125788,0.63199997,0.4409449
0.46511632,0.45098042,0.5289855,0.38674036,0.37837842,0.20125788,0.63199997,0.44094485
0.46511626,0.45098045,0.5289855,0.38674033,0.37837836,0.20125784,0.63199997,0.44094485
0.4651163,0.4509804,0.5289855,0.3867403,0.37837833,0.20125787,0.632,0.44094485
0.4651163,0.45098042,0.52898556,0.38674027,0.3783784,0.20125785,0.63199997,0.44094488
0.46511626,0.4509804,0.52898556,0.38674027,0.37837833,0.20125788,0.63199997,0.44094485
0.4651163,0.45098045,0.52898556,0.3867403,0.3783784,0.20125791,0.632,0.44094494
0.46511626,0.45098037,0.52898556,0.38674033,0.3783784,0.20125788,0.632,0.44094485
0.4651163,0.45098042,0.5289855,0.3867403,0.3783784,0.20125785,0.632,0.44094485
0.46511623,0.4509804,0.5289855,0.38674036,0.3783784,0.20125788,0.63199997,0.44094488
0.4651163,0.45098042,0.52898556,0.38674027,0.3783784,0.20125787,0.63199997,0.44094485
0.4651163,0.45098037,0.5289855,0.38674033,0.3783784,0.2012579,0.6320001,0.44094488
0.46511623,0.45098042,0.5289855,0.3867403,0.3783784,0.20125784,0.63199997,0.44094485
0.4651163,0.45098042,0.52898556,0.38674027,0.37837833,0.20125785,0.632,0.44094494
0.8255813,0.48366013,0.40579706,0.42541432,0.36486486,0.30817613,0.52800006,0.8818897
0.56395346,0.65359473,0.69402987,0.61878455,0.4279279,0.19496855,0.42400005,0.5984252
0.56395346,0.65359473,0.6940298,0.61878455,0.42792785,0.19496858,0.424,0.5984252
0.56395346,0.65359473,0.69402987,0.6187845,0.42792797,0.19496855,0.42400005,0.5984252
0.5639534,0.65359485,0.6940299,0.61878455,0.42792794,0.19496849,0.42400002,0.5984252
0.56395346,0.65359485,0.69402987,0.61878455,0.42792797,0.19496855,0.42400002,0.5984252
0.56395346,0.6535948,0.6940299,0.61878455,0.4279279,0.19496852,0.42399997,0.5984252
0.5639535,0.65359473,0.69402987,0.6187846,0.42792794,0.19496855,0.42400002,0.59842515
0.56395346,0.6535948,0.6940298,0.61878455,0.42792794,0.19496855,0.42400002,0.5984252
0.5639535,0.6535948,0.6940299,0.6187846,0.4279279,0.19496855,0.42400002,0.5984252
0.56395346,0.6535948,0.6940299,0.6187845,0.4279279,0.19496855,0.42400002,0.59842515
0.5639535,0.6535948,0.6940298,0.61878455,0.4279279,0.19496855,0.42400005,0.59842515
0.5639534,0.6535948,0.69402987,0.61878455,0.42792788,0.19496858,0.42400002,0.5984252
0.56395346,0.65359473,0.69402987,0.61878455,0.42792794,0.19496852,0.42399997,0.5984252
0.5639535,0.65359473,0.69402987,0.61878455,0.42792794,0.19496852,0.42400002,0.5984252
0.56395346,0.65359473,0.69402987,0.6187846,0.42792785,0.19496861,0.42400002,0.5984252
0.56395346,0.65359473,0.69402987,0.61878455,0.4279279,0.19496852,0.42400002,0.5984252
0.56395346,0.6535948,0.69402987,0.61878455,0.4279279,0.19496855,0.424,0.5984252
0.56395346,0.65359473,0.6940299,0.61878455,0.42792794,0.19496849,0.42400002,0.59842515
0.56395346,0.6535948,0.6940298,0.6187845,0.42792788,0.19496852,0.42400005,0.59842515
0.56395346,0.65359473,0.6940299,0.61878455,0.42792788,0.19496855,0.42400002,0.5984252
0.5639534,0.65359485,0.6940298,0.61878455,0.42792788,0.19496858,0.42399997,0.59842515
0.5639535,0.6535948,0.6940299,0.61878455,0.4279279,0.19496855,0.42400002,0.5984252
0.56395346,0.6535948,0.69402987,0.61878455,0.42792788,0.19496858,0.42400002,0.59842515
0.5639535,0.6535948,0.6940299,0.66272193,0.42792794,0.19496855,0.424,0.5984252
0.56395346,0.65359485,0.6940298,0.66272193,0.42792788,0.19496852,0.424,0.5984252
0.5639535,0.65359473,0.69402987,0.6627219,0.4279279,0.19496855,0.424,0.5984252
0.3895349,0.43790853,0.42537317,0.5029586,0.536036,0.42138368,0.776,0.5748032
0.5523256,0.60784316,0.61194026,0.40236685,0.48198196,0.5283019,0.57600003,0.6850394
0.5523255,0.60784316,0.61194026,0.40236685,0.481982,0.5283019,0.576,0.68503934
0.5523256,0.6078431,0.6119404,0.40236682,0.481982,0.52830184,0.57600003,0.6850394
0.5523256,0.60784316,0.61194026,0.40236688,0.48198193,0.5283019,0.57600003,0.68503934
0.5523256,0.60784316,0.61194026,0.40236682,0.48198193,0.5283019,0.5759999,0.68503934
0.5523256,0.60784316,0.6119402,0.40236682,0.481982,0.5283019,0.57600003,0.68503934
0.55232555,0.60784316,0.6119403,0.4023668,0.481982,0.5283019,0.576,0.6850394
0.5523256,0.60784316,0.6119403,0.40236688,0.48198196,0.5283019,0.576,0.6850394
0.5523256,0.6078431,0.6119403,0.40236688,0.48198196,0.5283019,0.57600003,0.6850394
0.55232555,0.60784304,0.6119403,0.40236685,0.48198193,0.52830184,0.57600003,0.6850393
0.5523256,0.60784316,0.6119403,0.40236682,0.481982,0.52830184,0.57600003,0.68503934
0.5523256,0.6078431,0.61194026,0.40236682,0.48198196,0.52830195,0.576,0.6850393
0.5523256,0.60784316,0.6119403,0.40236688,0.48198193,0.5283019,0.576,0.6850394
0.55232555,0.6078431,0.61194026,0.40236685,0.48198202,0.5283019,0.57600003,0.68503934
0.55232555,0.6078431,0.6119403,0.40236688,0.48198193,0.5283019,0.576,0.6850394
0.5523256,0.60784316,0.6119404,0.40236688,0.48198196,0.52830195,0.576,0.6850394
0.5523256,0.6078431,0.61194026,0.40236682,0.48198196,0.52830184,0.5759999,0.6850395
0.55232555,0.6078431,0.6119404,0.40236682,0.481982,0.5283019,0.576,0.68503934
0.5523256,0.6078431,0.6119403,0.40236682,0.481982,0.52830184,0.576,0.68503934
0.5523256,0.6078431,0.6119404,0.40236682,0.48198202,0.52830195,0.576,0.6850394
0.55232567,0.6078431,0.61194026,0.40236688,0.48198202,0.5283019,0.576,0.68503934
0.51744187,0.4379085,0.52238804,0.5739644,0.59909904,0.48427674,0.32000002,0.4015748
0.53488374,0.62745094,0.7462687,0.7633136,0.7297298,0.6352201,0.28000006,0.5826772
0.5348837,0.627451,0.7462687,0.76331353,0.7297297,0.63522017,0.28000003,0.5826772
0.53488374,0.627451,0.7462687,0.76331353,0.7297298,0.6352201,0.27999994,0.5826772
0.53488374,0.62745094,0.74626863,0.7633136,0.7297298,0.63522017,0.28,0.5826772
0.5348837,0.627451,0.7462686,0.7633136,0.7297298,0.6352201,0.27999994,0.5826772
0.53488374,0.627451,0.7462687,0.7633136,0.7297298,0.63522017,0.27999997,0.5826772
0.53488374,0.62745094,0.74626863,0.76331353,0.72972965,0.6352201,0.28000006,0.5826772
0.53488374,0.627451,0.74626863,0.76331365,0.7297298,0.63522005,0.28000003,0.5826772
0.5348837,0.62745094,0.74626863,0.76331365,0.72972965,0.6352201,0.28,0.5826772
0.5348837,0.62745106,0.74626863,0.76331365,0.7297297,0.63522017,0.28,0.5826771
0.5348838,0.627451,0.7462687,0.7633136,0.7297298,0.63522017,0.27999997,0.5826772
0.53488374,0.62745094,0.74626875,0.7633136,0.72972965,0.63522005,0.28,0.5826771
0.5348837,0.627451,0.7462687,0.76331365,0.7297297,0.63522017,0.28000003,0.58267725
0.5348837,0.62745094,0.7462687,0.76331353,0.72972965,0.63522017,0.27999997,0.58267725
0.5348837,0.62745094,0.7462687,0.7633136,0.7297298,0.6352201,0.28,0.5826772
0.53488374,0.62745094,0.74626863,0.7633136,0.72972965,0.63522017,0.28,0.5826771
0.5348837,0.627451,0.74626863,0.7633136,0.7297297,0.63522017,0.27999994,0.5826772
0.53488374,0.627451,0.74626863,0.76331353,0.72972965,0.6352201,0.27999997,0.5826771
0.5348837,0.62745106,0.74626863,0.7633136,0.7297297,0.6352201,0.28000003,0.5826772
0.53488374,0.62745094,0.74626863,0.76331365,0.72972965,0.63522017,0.28,0.5826772
0.53488374,0.62745094,0.74626863,0.76331365,0.7297297,0.6352201,0.27999997,0.5826771
0.53488374,0.62745106,0.74626863,0.7633136,0.7297297,0.63522017,0.28,0.5826771
0.5872093,0.6405229,0.7313433,0.6804734,0.5855856,0.59748435,0.6960001,0.5275591
0.58720934,0.64052284,0.7313433,0.6804734,0.5855856,0.59748423,0.696,0.52755904
0.5872093,0.64052284,0.73134327,0.6804734,0.5855856,0.5974843,0.696,0.5275591
0.5872092,0.64052296,0.73134327,0.6804733,0.5855856,0.5974843,0.696,0.52755904
0.5872092,0.64052284,0.7313433,0.68047345,0.58558553,0.5974843,0.696,0.52755904
0.5872093,0.64052296,0.73134327,0.6804733,0.5855856,0.5974843,0.6959999,0.5275591
0.5639535,0.5555556,0.5671642,0.40236688,0.527027,0.48427674,0.504,0.50393707
0.5639535,0.5555556,0.56716424,0.40236682,0.527027,0.4842767,0.504,0.503937
0.5639535,0.5555556,0.5671641,0.40236685,0.5270271,0.4842767,0.504,0.50393707
0.56395346,0.5555556,0.5671642,0.40236682,0.5270271,0.48427674,0.504,0.503937
0.56395346,0.5555555,0.5671642,0.40236685,0.527027,0.48427674,0.504,0.503937
0.56395346,0.5555556,0.5671642,0.40236688,0.527027,0.48427674,0.504,0.503937
0.56395346,0.5555556,0.5671642,0.40236682,0.52702695,0.4842767,0.504,0.50393695
0.56395346,0.5555556,0.5671642,0.40236688,0.527027,0.48427677,0.504,0.503937
0.56395346,0.5555556,0.5671642,0.40236685,0.527027,0.48427674,0.504,0.503937
0.56395346,0.5555555,0.56716424,0.40236688,0.527027,0.4842767,0.50399995,0.503937
0.5639535,0.5555555,0.5671642,0.40236685,0.5270271,0.48427677,0.504,0.503937
0.56395346,0.5555556,0.5671642,0.40236685,0.527027,0.48427674,0.50399995,0.503937
0.56395346,0.5555556,0.5671642,0.40236685,0.52702695,0.48427668,0.504,0.503937
0.56395346,0.5555556,0.5671642,0.40236682,0.527027,0.48427674,0.50400007,0.50393707
0.5639535,0.5555556,0.5671642,0.40236688,0.527027,0.48427677,0.50399995,0.50393707
0.56395346,0.5555556,0.5671642,0.40236682,0.5270271,0.48427674,0.504,0.503937
0.56395346,0.55555546,0.5671642,0.40236682,0.52702695,0.48427677,0.504,0.50393695
0.56395346,0.5555555,0.5671642,0.40236685,0.5270271,0.4842767,0.504,0.503937
0.56395346,0.5555556,0.5671642,0.40236688,0.5270271,0.4842767,0.50399995,0.503937
0.5639535,0.5555556,0.5671642,0.40236682,0.527027,0.4842767,0.504,0.503937
0.5639535,0.5555556,0.5671642,0.40236682,0.527027,0.48427674,0.50399995,0.503937
0.56395346,0.55555564,0.5671642,0.40236685,0.5270271,0.48427677,0.50400007,0.50393707
0.0813953,0.39215684,0.7835821,0.7337277,0.5225225,0.408805,0.54399997,0.46456692
0.0813953,0.39215684,0.78358215,0.7337278,0.5225225,0.40880504,0.544,0.46456695
0.0813953,0.39215693,0.7835821,0.7337278,0.5225225,0.408805,0.544,0.46456695
0.45348838,0.45098042,0.61940295,0.48520702,0.41441444,0.05660376,0.34399998,0.5826772
0.45348838,0.4509804,0.619403,0.48520705,0.4144144,0.05660376,0.34399998,0.5826771
0.45348832,0.4509804,0.619403,0.48520705,0.41441438,0.05660376,0.34399998,0.5826772
0.45348838,0.4509804,0.619403,0.48520708,0.41441444,0.05660379,0.34399998,0.5826772
0.45348838,0.45098037,0.61940295,0.48520714,0.41441435,0.05660376,0.34400004,0.5826772
0.45348838,0.45098042,0.61940295,0.48520714,0.4144144,0.05660376,0.34399998,0.5826771
0.45348835,0.4509804,0.61940295,0.48520708,0.41441438,0.05660379,0.34400007,0.58267725
0.45348838,0.4509804,0.619403,0.48520708,0.4144144,0.05660376,0.34399992,0.5826771
0.45348838,0.45098037,0.619403,0.48520708,0.41441447,0.05660373,0.34399998,0.5826771
0.4534884,0.45098042,0.61940306,0.48520708,0.41441435,0.05660379,0.34399998,0.58267725
0.4534883,0.45098042,0.61940295,0.48520708,0.4144144,0.05660379,0.344,0.5826771
0.45348835,0.45098037,0.619403,0.48520714,0.41441438,0.05660379,0.34400004,0.5826772
0.45348835,0.4509804,0.619403,0.48520714,0.41441444,0.05660376,0.344,0.5826772
0.45348835,0.45098045,0.619403,0.48520708,0.41441444,0.05660376,0.34400004,0.5826771
0.45348832,0.45098042,0.619403,0.4852071,0.4144144,0.05660376,0.34399998,0.5826772
0.45348835,0.45098037,0.619403,0.48520708,0.41441444,0.05660379,0.34399998,0.5826771
0.45348838,0.45098042,0.619403,0.48520708,0.41441438,0.05660376,0.344,0.5826771
0.45348835,0.4509804,0.61940295,0.48520702,0.4144144,0.05660382,0.344,0.5826772
0.45348835,0.45098045,0.61940295,0.48520714,0.4144144,0.05660376,0.34399998,0.58267725
0.24418604,0.51633984,0.5522388,0.6331361,0.59459454,0.34591192,0.33600008,0.25196853
0.5639534,0.5228758,0.74626863,0.6627218,0.45495492,0.27672958,0.512,0.5433071
0.2906977,0.4575163,0.664179,0.5976331,0.536036,0.42138365,0.696,0.5669291
0.2906977,0.4575163,0.66417915,0.59763306,0.536036,0.42138368,0.696,0.56692916
0.2906977,0.4575163,0.6641791,0.5976331,0.536036,0.42138365,0.696,0.5669292
0.2906977,0.45751637,0.66417915,0.5976331,0.536036,0.42138368,0.696,0.56692916
0.29069766,0.45751637,0.6641791,0.5976332,0.536036,0.42138365,0.696,0.5669292
0.29069766,0.45751637,0.664179,0.59763306,0.536036,0.42138362,0.696,0.5669291
0.29069763,0.45751637,0.6641791,0.5976331,0.5360361,0.42138368,0.69600004,0.56692916
0.29069766,0.4575164,0.66417915,0.5976331,0.5360361,0.42138365,0.696,0.5669291
0.2906977,0.45751634,0.6641791,0.5976331,0.536036,0.42138368,0.6959999,0.56692916
0.29069766,0.45751634,0.6641791,0.5976331,0.536036,0.42138368,0.696,0.5669291
0.29069763,0.45751637,0.6641791,0.5976332,0.536036,0.42138365,0.69600004,0.5669291
0.2906977,0.4575163,0.66417915,0.59763306,0.536036,0.42138368,0.696,0.56692916
0.29069763,0.45751637,0.66417915,0.59763306,0.536036,0.42138365,0.696,0.5669291
0.2906977,0.4575163,0.6641791,0.5976331,0.536036,0.42138362,0.696,0.5669291
0.2906977,0.4575163,0.66417915,0.5976331,0.536036,0.42138368,0.696,0.5669291
0.29069766,0.4575163,0.6641791,0.5976331,0.5360361,0.42138365,0.69600004,0.5669291
0.2906977,0.4575163,0.66417915,0.5976331,0.536036,0.42138365,0.696,0.5669291
0.29069763,0.45751637,0.66417915,0.5976332,0.536036,0.42138368,0.696,0.5669291
0.29069766,0.45751634,0.6641791,0.5976331,0.5360361,0.42138362,0.696,0.56692916
0.29069763,0.4575163,0.6641791,0.5976332,0.536036,0.42138365,0.696,0.5669291
0.5988372,0.60784316,0.522388,0.37278104,0.53603595,0.509434,0.608,0.503937
0.5988372,0.60784316,0.52238804,0.37278098,0.536036,0.5094339,0.608,0.503937
0.5988372,0.60784316,0.5223881,0.37278104,0.536036,0.5094339,0.6079999,0.50393707
0.59883726,0.6078432,0.5223881,0.37278104,0.5360361,0.509434,0.60800004,0.503937
0.5988372,0.6078431,0.5223881,0.37278104,0.5360361,0.509434,0.6079999,0.503937
0.25581393,0.32679743,0.26865676,0.40828398,0.45045042,0.41509438,0.528,0.34645668
0.25581393,0.32679743,0.26865673,0.408284,0.45045048,0.41509438,0.528,0.34645665
0.25581396,0.32679743,0.26865673,0.40828404,0.45045042,0.41509432,0.52799994,0.3464567
0.25581396,0.32679743,0.2686567,0.40828404,0.45045048,0.41509435,0.528,0.3464567
0.25581396,0.32679743,0.26865676,0.40828407,0.4504504,0.41509435,0.52800006,0.3464566
0.2558139,0.32679737,0.26865673,0.40828398,0.45045045,0.41509438,0.528,0.34645674
0.25581393,0.32679743,0.26865673,0.408284,0.45045042,0.41509432,0.528,0.3464567
0.25581393,0.32679743,0.26865673,0.40828404,0.45045048,0.41509438,0.528,0.34645668
0.25581396,0.32679737,0.26865676,0.408284,0.45045045,0.41509435,0.528,0.3464567
0.25581396,0.3267974,0.26865673,0.40828404,0.4504504,0.41509432,0.528,0.34645662
0.25581396,0.32679743,0.2686567,0.408284,0.4504505,0.41509438,0.528,0.34645668
0.25581393,0.32679743,0.2686567,0.408284,0.45045045,0.41509432,0.528,0.3464567
0.25581396,0.32679743,0.2686568,0.40828398,0.45045042,0.41509435,0.52800006,0.34645665
0.25581396,0.3267974,0.2686567,0.408284,0.45045042,0.41509432,0.52800006,0.34645665
0.25581396,0.32679737,0.2686567,0.40828395,0.45045042,0.41509438,0.528,0.34645665
0.25581396,0.32679737,0.2686567,0.40828404,0.45045042,0.41509432,0.528,0.3464567
0.25581393,0.3267974,0.2686568,0.408284,0.45045048,0.41509435,0.528,0.3464567
0.25581393,0.32679737,0.26865676,0.408284,0.45045045,0.41509432,0.528,0.34645668
0.25581396,0.3267974,0.2686567,0.40828404,0.45045045,0.41509438,0.528,0.34645668
0.25581393,0.3267974,0.26865676,0.40828407,0.4504504,0.41509438,0.52800006,0.34645665
0.25581396,0.32679737,0.26865673,0.408284,0.45045042,0.41509435,0.52800006,0.3464567
0.25581396,0.32679746,0.2686567,0.40828398,0.45045048,0.41509435,0.528,0.3464566
0.25581396,0.3267974,0.2686567,0.408284,0.45045045,0.41509435,0.52800006,0.3464567
