0,1,2,3,4,5,6,7
0.4708738,0.32679743,0.31159425,0.25414366,0.18468466,0.07831323,0.44776118,0.47244093
0.4708738,0.32679743,0.31159425,0.25414363,0.1846847,0.07831326,0.44776124,0.47244102
0.47087377,0.32679743,0.31159422,0.2541437,0.18468466,0.07831326,0.44776118,0.47244096
0.47087383,0.32679737,0.31159416,0.2541436,0.18468466,0.07831326,0.44776118,0.472441
0.47087377,0.3267974,0.3115942,0.25414366,0.18468463,0.07831326,0.44776124,0.47244096
0.47087383,0.32679743,0.31159416,0.25414366,0.18468466,0.07831326,0.44776118,0.47244096
0.47087374,0.32679737,0.3115942,0.25414366,0.18468463,0.07831326,0.44776115,0.4724409
0.49514565,0.4771242,0.5289855,0.40883973,0.34234238,0.3493976,0.34328356,0.39370078
0.49514565,0.47712418,0.5289855,0.4088397,0.34234232,0.3493976,0.3432836,0.39370078
0.5145631,0.48366016,0.5434782,0.46961325,0.5135135,0.38554215,0.39552242,0.44881886
0.5145631,0.4836601,0.54347825,0.46961325,0.5135135,0.38554215,0.39552242,0.44881895
0.5145631,0.4836601,0.54347825,0.46961328,0.5135135,0.38554218,0.39552242,0.44881895
0.5145631,0.48366016,0.54347825,0.46961328,0.5135135,0.38554218,0.3955224,0.44881886
0.5145631,0.48366016,0.54347825,0.46961322,0.5135135,0.38554218,0.39552236,0.44881892
0.5145631,0.4836601,0.5434783,0.46961328,0.5135135,0.38554215,0.39552242,0.4488189
0.5145631,0.4836602,0.54347825,0.46961325,0.5135135,0.38554215,0.39552242,0.44881898
0.5145631,0.48366013,0.5434783,0.4696133,0.51351345,0.38554215,0.39552245,0.4488189
0.5145631,0.48366013,0.5434783,0.46961325,0.5135135,0.38554218,0.39552245,0.44881892
0.5145631,0.48366016,0.5434782,0.46961325,0.5135135,0.38554215,0.39552236,0.44881892
0.5145631,0.48366013,0.54347825,0.46961325,0.5135135,0.38554218,0.39552242,0.44881886
0.5145631,0.48366016,0.54347825,0.4696133,0.5135135,0.38554215,0.39552236,0.44881895
0.5145631,0.48366013,0.5434783,0.46961322,0.5135135,0.3855422,0.39552242,0.44881886
0.5145631,0.48366013,0.54347825,0.46961328,0.5135134,0.3855422,0.3955224,0.44881886
0.51456314,0.4836601,0.5434783,0.46961325,0.51351345,0.38554218,0.39552236,0.44881886
0.5145631,0.48366016,0.5434782,0.46961325,0.5135135,0.3855422,0.39552242,0.4488189
0.5145631,0.4836601,0.5434782,0.46961325,0.5135135,0.38554215,0.39552242,0.44881892
0.5145631,0.48366016,0.54347825,0.46961325,0.5135135,0.38554218,0.3955224,0.44881892
0.514563,0.48366013,0.54347825,0.46961325,0.5135135,0.38554215,0.39552245,0.44881892
0.51456314,0.48366016,0.54347825,0.46961325,0.51351357,0.38554215,0.3955224,0.4488189
0.52427185,0.49673203,0.5507246,0.42541438,0.44594595,0.48795182,0.55970144,0.5511811
0.5631067,0.503268,0.5217391,0.25966847,0.46846846,0.55421686,0.57462686,0.66929126
0.56310683,0.503268,0.5217391,0.25966847,0.46846843,0.5542169,0.57462686,0.6692914
0.5631067,0.50326794,0.52173907,0.25966847,0.46846843,0.5542169,0.5746269,0.66929126
0.5631068,0.50326794,0.5217391,0.2596685,0.4684685,0.5542169,0.57462686,0.6692913
0.5631067,0.50326794,0.5217391,0.25966853,0.46846846,0.55421686,0.5746268,0.66929144
0.56310683,0.503268,0.5217391,0.25966847,0.46846846,0.5542169,0.5746269,0.66929126
0.5631067,0.50326794,0.5217391,0.25966847,0.46846852,0.55421686,0.57462686,0.6692914
0.56310683,0.50326794,0.5217391,0.2596685,0.46846843,0.55421686,0.57462686,0.66929144
0.56310683,0.50326794,0.5217391,0.2596685,0.4684685,0.55421686,0.57462686,0.6692914
0.5631068,0.503268,0.52173907,0.2596685,0.46846846,0.55421686,0.5746269,0.6692914
0.5631067,0.50326794,0.5217391,0.2596685,0.4684685,0.55421686,0.57462686,0.6692914
0.5631068,0.503268,0.5217391,0.2596685,0.4684685,0.5542169,0.5746269,0.6692913
0.5631068,0.503268,0.5217392,0.2596685,0.46846846,0.5542169,0.57462686,0.6692913
0.5631068,0.50326794,0.5217391,0.2596685,0.46846846,0.55421686,0.57462686,0.6692914
0.53398055,0.49019608,0.5072463,0.5248619,0.59459454,0.5240964,0.5447761,0.5354331
0.5145631,0.51633984,0.57246375,0.5745857,0.5315315,0.46987954,0.5074627,0.48031497
0.5145631,0.5163399,0.57246375,0.5745857,0.5315316,0.4698795,0.5074626,0.48031494
0.5145631,0.5163399,0.5724638,0.5745856,0.53153145,0.46987948,0.5074627,0.48031494
0.51456314,0.5163399,0.57246375,0.5745857,0.5315315,0.46987954,0.5074627,0.48031497
0.5145631,0.5163399,0.5724638,0.5745856,0.5315315,0.46987957,0.5074627,0.48031497
0.5145631,0.5163399,0.5724638,0.5745857,0.5315315,0.46987948,0.5074627,0.48031494
0.47087377,0.37908494,0.3188406,0.0883978,0.08108106,0.0,0.1716418,0.4015748
0.553398,0.50980395,0.5724638,0.56906074,0.4324324,0.39759037,0.5671641,0.6535433
0.553398,0.50980395,0.57246375,0.5690607,0.43243238,0.39759037,0.5671642,0.6535433
0.55339813,0.50980395,0.57246375,0.5690608,0.4324324,0.39759037,0.5671641,0.65354335
0.5533981,0.5098039,0.5724638,0.56906074,0.43243244,0.39759034,0.5671642,0.6535433
0.553398,0.50980395,0.57246375,0.5690608,0.43243244,0.375,0.56716424,0.6535433
0.5533981,0.50980395,0.57246375,0.5690608,0.4324324,0.375,0.5671642,0.65354323
0.52427185,0.43137255,0.4927536,0.40883976,0.5045045,0.55,0.5895522,0.61417323
0.52427185,0.43137258,0.49275368,0.40883976,0.5045045,0.55,0.5895522,0.6141732
0.52427185,0.43137255,0.49275362,0.40883973,0.50450444,0.55,0.5895522,0.6141732
0.52427185,0.4313726,0.4927536,0.40883973,0.50450444,0.55,0.5895522,0.61417323
0.52427185,0.43137252,0.49275365,0.40883976,0.5045045,0.54999995,0.5895522,0.6141733
0.52427185,0.43137258,0.49275365,0.4088398,0.5045045,0.55,0.5895523,0.6141733
0.5242718,0.43137258,0.49275357,0.40883976,0.50450456,0.54999995,0.5895522,0.6141733
0.5097087,0.47712418,0.45652172,0.33701658,0.2792793,0.0,0.2835821,0.44094485
0.50970876,0.4771242,0.45652175,0.33701655,0.27927926,0.0,0.28358203,0.44094485
0.5097087,0.47712415,0.4565218,0.33701658,0.2792793,0.0,0.28358215,0.4409449
0.5097087,0.47712415,0.45652178,0.33701652,0.27927932,0.0,0.2835821,0.44094482
0.5097087,0.47712418,0.45652175,0.33701658,0.2792793,0.0,0.2835821,0.4409449
0.5097087,0.47712418,0.4565217,0.33701652,0.27927923,0.0,0.2835821,0.44094494
0.50970876,0.47712418,0.45652178,0.33701658,0.27927926,0.0,0.28358212,0.44094488
0.5097087,0.47712415,0.4565217,0.33701658,0.27927926,0.0,0.28358206,0.4409449
0.50970876,0.4771242,0.4565218,0.3370166,0.2792793,0.0,0.28358206,0.4409449
0.41279072,0.47712418,0.4565217,0.3370166,0.27927926,0.0,0.2835821,0.44094488
0.4127907,0.47712418,0.45652178,0.33701658,0.2792792,0.0,0.2835821,0.4409449
0.41279072,0.47712415,0.45652175,0.33701664,0.2792793,0.0,0.2835821,0.4409449
0.4127907,0.4771242,0.45652175,0.33701652,0.27927923,0.0,0.28358203,0.44094488
0.4127907,0.4771242,0.45652172,0.33701658,0.27927923,0.0,0.2835821,0.44094485
0.4127907,0.47712418,0.4565218,0.33701664,0.27927926,0.0,0.2835821,0.44094494
0.38372093,0.41830063,0.29710138,0.11049718,0.12162158,0.012500048,0.25373134,0.42519683
0.38372096,0.41830066,0.29710144,0.11049721,0.12162164,0.012500048,0.25373134,0.42519686
0.4360465,0.50980395,0.55072457,0.51933694,0.4279279,0.59375,0.53731346,0.496063
0.43604648,0.50980395,0.5507246,0.519337,0.4279279,0.59375006,0.53731346,0.49606296
0.43604648,0.509804,0.5507246,0.519337,0.4279279,0.591195,0.53731334,0.49606302
0.4360465,0.5098039,0.5507246,0.519337,0.42792794,0.591195,0.5373134,0.49606302
0.4360465,0.50980395,0.5507246,0.519337,0.42792797,0.591195,0.5373134,0.49606302
0.4360465,0.50980395,0.5507247,0.519337,0.4279279,0.591195,0.53731346,0.49606293
0.43604648,0.5098039,0.5507247,0.519337,0.4279279,0.59119505,0.5373134,0.496063
0.4360465,0.5098039,0.5507247,0.519337,0.4279279,0.591195,0.5373134,0.49606296
0.43604648,0.50980395,0.5507246,0.51933706,0.4279279,0.591195,0.53731346,0.49606302
0.4360465,0.509804,0.5507246,0.51933706,0.42792788,0.5911949,0.5373134,0.49606296
0.4360465,0.50980395,0.55072457,0.519337,0.42792788,0.591195,0.53731346,0.49606296
0.4360465,0.5098039,0.55072457,0.519337,0.4279279,0.591195,0.5373134,0.496063
0.4360465,0.5098039,0.5507246,0.519337,0.42792785,0.5911949,0.53731346,0.49606296
0.43604654,0.50980395,0.5507247,0.519337,0.42792785,0.591195,0.54135334,0.49606296
0.4360465,0.5098039,0.5507246,0.51933694,0.42792785,0.591195,0.54135334,0.496063
0.43604642,0.50980395,0.5507247,0.519337,0.42792794,0.591195,0.54135334,0.49606302
0.43604648,0.50980395,0.55072457,0.51933706,0.42792794,0.591195,0.54135334,0.49606305
0.43604648,0.5098039,0.5507246,0.519337,0.42792794,0.591195,0.54135334,0.496063
0.4360465,0.50980395,0.5507246,0.519337,0.42792794,0.591195,0.5413534,0.49606296
0.43604654,0.5098039,0.5507246,0.519337,0.42792794,0.591195,0.54135334,0.49606305
0.4360465,0.50980395,0.5507247,0.51933706,0.42792794,0.5911949,0.5413534,0.49606293
0.41860467,0.41830063,0.4130435,0.30939227,0.43693691,0.5157233,0.57142854,0.5748032
0.39534882,0.49673206,0.557971,0.6132597,0.572072,0.5031447,0.4586466,0.36220467
0.3953488,0.4967321,0.55797106,0.6132597,0.5720721,0.5031447,0.45864663,0.36220473
0.39534882,0.49673203,0.557971,0.61325973,0.572072,0.5031447,0.45864654,0.36220467
0.39534882,0.49673206,0.557971,0.6132597,0.5720721,0.50314456,0.4586466,0.36220473
0.3953488,0.49673203,0.55797106,0.6132597,0.572072,0.5031446,0.4586466,0.36220467
0.39534885,0.496732,0.557971,0.6132596,0.5720721,0.5031447,0.4586466,0.36220473
0.39534882,0.49673206,0.55797094,0.6132597,0.572072,0.5031446,0.45864657,0.36220473
0.39534888,0.496732,0.55797106,0.6132597,0.572072,0.5031447,0.4586466,0.36220467
0.39534885,0.496732,0.557971,0.6132597,0.57207215,0.5031447,0.4586466,0.36220473
0.39534885,0.49673203,0.557971,0.6132597,0.5720721,0.5031447,0.4586466,0.36220467
0.39534882,0.4967321,0.557971,0.6132597,0.572072,0.5031447,0.4586466,0.3622047
0.39534882,0.49673206,0.557971,0.61325973,0.572072,0.5031447,0.4586466,0.36220473
0.4186047,0.49019608,0.5507246,0.40883982,0.20720723,0.10062894,0.42105263,0.496063
0.41860458,0.4901961,0.5507247,0.4088398,0.20720717,0.10062891,0.4210526,0.49606296
0.41860467,0.49019605,0.5507246,0.40883976,0.20720723,0.10062894,0.4210526,0.49606296
0.41860464,0.4901961,0.5507247,0.40883976,0.20720726,0.10062894,0.42105263,0.496063
0.41860464,0.49019605,0.5507246,0.4088398,0.20720723,0.10062888,0.4210526,0.49606302
0.41860467,0.49019605,0.5507247,0.40883976,0.20720723,0.10062891,0.42105263,0.496063
0.41860467,0.49019608,0.5507246,0.4088398,0.2072072,0.10062894,0.42105263,0.49606302
0.45930237,0.4901961,0.5797102,0.5911602,0.5405405,0.41509438,0.6015038,0.64566934
0.45930228,0.4901961,0.5797102,0.59116024,0.5405406,0.41509435,0.60150373,0.6456693
0.4593023,0.49019617,0.5797102,0.5911602,0.5405405,0.41509432,0.60150373,0.6456692
0.4593023,0.49019608,0.5797101,0.5911602,0.5405405,0.41509435,0.6015038,0.6456693
0.45930234,0.49019608,0.5797101,0.59116024,0.5405406,0.41509432,0.60150373,0.6456693
0.45930228,0.49019608,0.5797102,0.5911602,0.5405405,0.41509435,0.60150373,0.64566934
0.4593023,0.49019614,0.5797102,0.5911602,0.5405406,0.41509435,0.6015038,0.64566934
0.45930234,0.49019605,0.5797101,0.59116024,0.5405405,0.41509438,0.6015038,0.64566934
0.4593023,0.4901961,0.5797101,0.5911602,0.5405405,0.41509432,0.6015038,0.6456693
0.4593023,0.49019605,0.5797101,0.5911603,0.5405405,0.41509438,0.60150373,0.6456693
0.4593023,0.49019608,0.5797101,0.59116024,0.5405405,0.41509435,0.6015038,0.64566934
0.4593023,0.49019608,0.5797101,0.5911602,0.54054046,0.41509435,0.60150373,0.6456693
0.45930234,0.4901961,0.57971025,0.5911602,0.5405406,0.41509438,0.60150373,0.64566934
0.45930234,0.4901961,0.5797101,0.5911602,0.5405405,0.41509432,0.60150373,0.6456692
0.45930234,0.49019605,0.5797102,0.59116024,0.5405405,0.41509438,0.60150373,0.64566934
0.4476744,0.5686275,0.6666667,0.6298343,0.6261261,0.40251574,0.49624053,0.4488189
0.4476744,0.5686275,0.66666675,0.6298343,0.6261261,0.40251574,0.4962406,0.44881895
0.52325577,0.67320263,0.8333334,0.73480666,0.8603604,0.754717,0.56390977,0.62992126
0.5232558,0.6732026,0.8333334,0.7348066,0.8603603,0.754717,0.5639097,0.62992126
0.5232558,0.6732026,0.8333334,0.73480654,0.8603604,0.754717,0.5639097,0.62992126
0.5232558,0.67320263,0.83333325,0.73480666,0.8603603,0.754717,0.56390977,0.62992126
0.52325577,0.67320263,0.8333334,0.73480666,0.86036026,0.754717,0.56060606,0.62992126
0.5232558,0.67320263,0.8333333,0.73480666,0.8603603,0.75471693,0.56060606,0.62992126
0.5232558,0.67320263,0.8333334,0.7348066,0.8603604,0.754717,0.56060606,0.62992126
0.5232558,0.6732026,0.8333334,0.73480666,0.8603604,0.754717,0.56060606,0.62992126
0.5232558,0.67320263,0.8333333,0.7348066,0.86036026,0.754717,0.56060606,0.62992126
0.5232558,0.6732027,0.8333334,0.7348066,0.8603604,0.754717,0.560606,0.6299213
0.5232558,0.6732026,0.8333334,0.73480654,0.86036026,0.754717,0.560606,0.62992126
0.5232558,0.67320263,0.8333334,0.7348066,0.86036044,0.754717,0.560606,0.62992126
0.5232558,0.67320263,0.83333325,0.73480666,0.8603604,0.754717,0.560606,0.62992126
0.5232558,0.67320263,0.8333333,0.7348066,0.8603603,0.75471693,0.56060606,0.6299213
0.52325577,0.6732026,0.8333334,0.73480666,0.8603603,0.75471693,0.56060606,0.6299213
0.5232558,0.6732027,0.8333334,0.7348066,0.8603604,0.754717,0.56060606,0.62992126
0.52325577,0.6732026,0.8333334,0.73480666,0.8603604,0.754717,0.5606061,0.6299213
0.5232558,0.67320263,0.8333334,0.7348066,0.8603604,0.754717,0.56060606,0.62992126
0.5232558,0.6732027,0.83333325,0.73480666,0.8603604,0.75471705,0.5606061,0.6299213
0.5232558,0.67320263,0.8333334,0.7348066,0.8603604,0.754717,0.56060606,0.6299213
0.5232558,0.6732026,0.8333334,0.73480666,0.86036026,0.754717,0.56060606,0.62992126
0.4593023,0.54901963,0.5434783,0.5690608,0.49549547,0.32704404,0.4621212,0.52755904
0.43023252,0.49019608,0.4565218,0.34806627,0.3918919,0.35220128,0.4848485,0.54330707
0.43023252,0.49019605,0.4565217,0.34806627,0.3918919,0.35220128,0.4848485,0.5433071
0.43023255,0.49019608,0.4565218,0.34806627,0.3918919,0.35220128,0.48484844,0.543307
0.43023252,0.49019608,0.45652175,0.34806627,0.39189184,0.35220125,0.4848485,0.54330707
0.43023252,0.49019614,0.45652172,0.3480663,0.3918919,0.35220128,0.48484856,0.5433071
0.43023255,0.49019608,0.4565218,0.3480663,0.3918919,0.35220122,0.4848485,0.54330707
0.43023258,0.4901961,0.45652175,0.34806627,0.39189184,0.35220134,0.48484844,0.5433071
0.43023255,0.49019605,0.45652175,0.34806627,0.39189187,0.35220128,0.48484847,0.5433071
0.43023252,0.49019608,0.45652175,0.34806627,0.3918919,0.35220125,0.4848485,0.54330707
0.43023255,0.4901961,0.45652178,0.34806624,0.3918919,0.35220125,0.4848485,0.5433071
0.43023255,0.4901961,0.45652175,0.34806627,0.39189184,0.35220128,0.4848484,0.54330707
0.43023258,0.49019608,0.45652178,0.34806633,0.3918919,0.35220128,0.4848485,0.5433071
0.43023255,0.49019614,0.45652175,0.34806627,0.39189187,0.35220122,0.48484847,0.5433071
0.41860467,0.43137255,0.44202897,0.3867403,0.36036038,0.2893082,0.45454547,0.511811
0.41860464,0.43137252,0.442029,0.38674036,0.36036035,0.28930816,0.45454544,0.5118111
0.41860464,0.43137258,0.44202897,0.38674033,0.36036038,0.2893082,0.45454547,0.5118111
0.4186046,0.43137255,0.442029,0.38674036,0.3603603,0.28930816,0.4545455,0.511811
0.4186046,0.4313726,0.44202903,0.38674033,0.36036032,0.2893082,0.4545455,0.511811
0.41860464,0.43137252,0.442029,0.38674033,0.36036038,0.2893082,0.45454544,0.511811
0.43023255,0.52941173,0.6594203,0.67403316,0.68468463,0.591195,0.51515144,0.44881886
0.43023258,0.5294118,0.65942025,0.67403316,0.68468463,0.591195,0.51515156,0.4488189
0.4302325,0.5294118,0.65942025,0.67403316,0.68468475,0.591195,0.51515156,0.44881886
0.43023255,0.52941173,0.65942025,0.67403316,0.68468463,0.5911949,0.5151515,0.4488189
0.43023252,0.5294118,0.6594204,0.67403316,0.6846847,0.591195,0.51515156,0.4488189
0.43023252,0.5294118,0.6594203,0.6740331,0.68468463,0.591195,0.5151515,0.44881886
0.43023255,0.52941173,0.65942025,0.67403316,0.6846847,0.5911949,0.51515156,0.44881895
0.43023252,0.5294118,0.6594203,0.67403316,0.6846847,0.591195,0.51515156,0.44881895
0.43023255,0.5294118,0.65942025,0.67403316,0.6846847,0.591195,0.5151515,0.44881886
0.43023255,0.5294118,0.65942025,0.6740331,0.6846847,0.591195,0.5151515,0.44881886
0.43023255,0.5294118,0.6594203,0.6740332,0.68468463,0.591195,0.5151515,0.4488189
0.43023255,0.5294118,0.6594203,0.67403316,0.68468463,0.5911949,0.51515156,0.44881883
0.4302325,0.5294118,0.6594203,0.6740332,0.68468463,0.591195,0.5151515,0.44881895
0.43023252,0.5294118,0.65942025,0.6740332,0.68468463,0.591195,0.51515144,0.4488189
0.43023255,0.52941173,0.65942025,0.67403316,0.6846847,0.591195,0.51515156,0.4488189
0.43023258,0.5294118,0.6594204,0.67403316,0.6846847,0.591195,0.5151515,0.44881892
0.47093022,0.5424837,0.6521739,0.68508285,0.7657657,0.5786163,0.560606,0.6141733
0.47093022,0.5424837,0.65217394,0.6850828,0.76576567,0.5786164,0.56060606,0.6141733
0.45348838,0.5098039,0.6304348,0.7624309,0.8738738,0.5974843,0.6060607,0.6062993
0.45348835,0.50980395,0.63043475,0.762431,0.87387383,0.5974843,0.6060606,0.6062992
0.45348832,0.50980395,0.63043475,0.76243097,0.87387383,0.59748423,0.60606056,0.6062992
0.45348838,0.5098039,0.6304348,0.7624309,0.87387383,0.59748435,0.6060605,0.6062992
0.45348835,0.50980395,0.63043475,0.7624309,0.8738738,0.59748423,0.60606056,0.6062992
0.4534884,0.50980395,0.6304348,0.76243085,0.87387383,0.59748435,0.6060607,0.6062993
0.45348835,0.50980395,0.63043475,0.7624309,0.87387383,0.5974843,0.6060606,0.6062992
0.45348838,0.50980395,0.6304347,0.7624309,0.87387383,0.5974843,0.6060606,0.6062992
0.45348835,0.50980395,0.6304348,0.7624309,0.87387395,0.5974843,0.6060605,0.60629916
0.45348835,0.50980395,0.6304348,0.762431,0.87387383,0.59748423,0.60606056,0.6062992
0.45348835,0.509804,0.63043475,0.76243097,0.87387383,0.5974843,0.60606056,0.60629916
0.45348838,0.50980395,0.63043475,0.76243085,0.87387383,0.5974843,0.6060606,0.60629916
0.4534884,0.50980395,0.63043475,0.7624309,0.8738739,0.59748435,0.60606056,0.60629916
0.45348838,0.50980395,0.6304348,0.7624309,0.87387383,0.5974843,0.6060606,0.60629916
0.45348835,0.50980395,0.6304348,0.7624309,0.87387383,0.59748423,0.6060606,0.6062993
0.45348835,0.5098039,0.6304349,0.76243097,0.87387383,0.5974843,0.60606056,0.6062992
0.45348832,0.50980395,0.6304348,0.76243097,0.87387383,0.59748435,0.60606056,0.60629916
0.45348832,0.5098039,0.6304348,0.7624309,0.87387383,0.5974843,0.60606056,0.6062992
0.45348832,0.5098039,0.63043475,0.7624309,0.87387383,0.5974843,0.6060606,0.6062992
0.4534884,0.50980395,0.63043475,0.7624309,0.87387383,0.59748423,0.6060606,0.6062993
0.45348838,0.5098039,0.63043475,0.7624309,0.87387395,0.59748423,0.6060606,0.60629916
0.45348838,0.50980395,0.63043475,0.76243097,0.8738739,0.59748423,0.6060606,0.6062993
0.45348838,0.50980395,0.6304348,0.76243097,0.87387383,0.5974843,0.6060606,0.6062992
0.45348835,0.50980395,0.63043475,0.7624309,0.87387383,0.5974843,0.6060606,0.60629916
0.45348835,0.5098039,0.6304348,0.7624309,0.87387395,0.59748435,0.6060606,0.6062992
0.45348838,0.50980395,0.63043475,0.7624309,0.87387395,0.5974843,0.60606056,0.60629916
0.45348838,0.50980395,0.63043475,0.7624309,0.8738738,0.59748423,0.6060606,0.6062992
0.43023252,0.4575163,0.50724643,0.43646407,0.4099099,0.39622644,0.4318182,0.5354332
0.43023255,0.45751634,0.5072464,0.43646407,0.40990984,0.3962264,0.43181822,0.53543305
0.43023258,0.4771242,0.47826087,0.39779004,0.44594595,0.3647799,0.5075758,0.55905515
0.43023255,0.47712418,0.47826082,0.39779007,0.44594592,0.3647799,0.5075758,0.55905515
0.43023255,0.47712415,0.47826093,0.39779007,0.44594595,0.36477986,0.50757575,0.55905515
0.43023255,0.47712415,0.47826093,0.39779,0.44594598,0.36477992,0.5075757,0.5590552
0.43023255,0.47712418,0.47826087,0.39779,0.44594592,0.3647799,0.5075758,0.55905515
0.43023255,0.5163399,0.57246375,0.47513807,0.52252245,0.3584906,0.4469697,0.47244096
0.45930228,0.53594774,0.6014493,0.51933706,0.545045,0.48427677,0.5606061,0.59055114
0.4593023,0.53594774,0.60144925,0.519337,0.5450451,0.4842767,0.56060606,0.59055114
0.45930234,0.5359477,0.60144925,0.519337,0.5450451,0.48427674,0.56060606,0.5905512
0.4593023,0.5359477,0.60144925,0.51933706,0.545045,0.4842767,0.56060606,0.59055126
0.45930234,0.5359478,0.60144925,0.51933706,0.54504496,0.4842768,0.5606061,0.5905512
0.44186044,0.53594774,0.63043475,0.7237569,0.6621622,0.44654092,0.5151515,0.5354331
0.44186047,0.53594774,0.6304348,0.72375685,0.6621622,0.44654086,0.5151515,0.5354331
0.4418605,0.53594774,0.63043475,0.7237569,0.6621621,0.44654086,0.54399997,0.53543305
0.44186044,0.5359477,0.63043475,0.72375685,0.6621621,0.4465409,0.54399997,0.5354331
0.44186047,0.5359477,0.6304348,0.7237569,0.6621622,0.4465409,0.54399997,0.5354331
0.4418605,0.5359477,0.6304348,0.7237569,0.6621622,0.44654092,0.5439999,0.53543305
0.44186047,0.5359477,0.6304348,0.7237569,0.66216224,0.44654092,0.54399997,0.5354331
0.44186044,0.5359477,0.63043475,0.7237569,0.6621621,0.44654086,0.544,0.53543305
0.44186044,0.5359477,0.63043475,0.7237569,0.6621622,0.4465409,0.544,0.5354331
0.44186047,0.5359477,0.6304348,0.72375697,0.6621621,0.44654083,0.54399997,0.5354331
0.44186044,0.53594774,0.63043475,0.72375685,0.6621622,0.44654092,0.544,0.5354331
0.44186044,0.53594774,0.63043475,0.7237569,0.66216207,0.44654092,0.544,0.53543305
0.44186047,0.53594774,0.6304348,0.72375685,0.6621621,0.44654083,0.544,0.53543305
0.44186044,0.53594774,0.63043475,0.7237569,0.6621622,0.44654086,0.54399997,0.5354331
0.44186044,0.53594774,0.6304348,0.7237569,0.6621622,0.44654092,0.544,0.53543305
0.44186044,0.5359477,0.6304348,0.7237569,0.6621621,0.44654086,0.544,0.53543305
0.46511626,0.54901963,0.62318844,0.59116024,0.70270264,0.5031447,0.6079999,0.6062992
0.46511626,0.5490197,0.6231884,0.59116024,0.7027027,0.5031447,0.608,0.6062992
0.46511626,0.52941173,0.6376811,0.5801105,0.5495495,0.3773585,0.592,0.5905512
0.46511626,0.5294118,0.6376811,0.58011055,0.5495496,0.37735853,0.59199995,0.59055126
0.4651163,0.5294118,0.6376812,0.5801105,0.5495495,0.3773585,0.592,0.5905512
0.46511626,0.52941173,0.6376812,0.5801105,0.5495496,0.37735847,0.592,0.5905512
0.46511626,0.5294118,0.6376812,0.58011055,0.5495496,0.37735856,0.592,0.5905512
0.4651163,0.52941173,0.6376811,0.58011043,0.5495495,0.3773585,0.59199995,0.5905512
0.46511626,0.5294118,0.6376811,0.58011043,0.5495495,0.3773585,0.592,0.59055114
0.4651163,0.5294118,0.6376811,0.5801105,0.5495496,0.37735853,0.59200007,0.59055114
0.46511626,0.52941173,0.6376812,0.5801105,0.5495496,0.37735847,0.59200007,0.5905512
0.46511626,0.5294118,0.6376812,0.58011043,0.5495495,0.3773585,0.592,0.5905512
0.4651163,0.52941173,0.6376811,0.5801105,0.5495495,0.37735856,0.592,0.59055114
0.46511626,0.5294118,0.6376812,0.5801105,0.5495496,0.37735853,0.592,0.59055114
0.46511632,0.5294118,0.6376812,0.58011043,0.5495495,0.3773585,0.592,0.5905512
0.4651163,0.5294118,0.6376811,0.58011055,0.5495495,0.37735853,0.59199995,0.59055114
0.46511632,0.52941173,0.63768125,0.5801105,0.5495495,0.3773585,0.5919999,0.59055126
0.4651163,0.5294118,0.6376812,0.5801105,0.5495496,0.3773585,0.592,0.5905512
0.46511626,0.52941173,0.6376811,0.58011055,0.54954946,0.3773585,0.592,0.5905512
0.46511626,0.5294118,0.6376811,0.5801105,0.5495495,0.3773585,0.592,0.5905512
0.46511626,0.5294118,0.6376812,0.5801105,0.5495496,0.3773585,0.592,0.59055126
0.46511623,0.5294118,0.6376811,0.58011043,0.54954946,0.3773585,0.59199995,0.5905512
0.45348835,0.5359478,0.6449275,0.6022099,0.5405405,0.42138362,0.70399994,0.65354335
0.44186047,0.4967321,0.557971,0.679558,0.8648648,0.5471698,0.56,0.503937
0.42441863,0.5163399,0.55797106,0.40331492,0.27927926,0.26415092,0.472,0.50393707
0.42441863,0.51633984,0.557971,0.40331492,0.27927923,0.26415098,0.472,0.50393695
0.42441857,0.51633984,0.55797106,0.40331495,0.2792793,0.26415098,0.47199997,0.503937
0.42441863,0.5163399,0.557971,0.40331495,0.27927923,0.26415092,0.47199994,0.50393695
0.42441857,0.5163399,0.55797106,0.40331492,0.27927926,0.26415095,0.47199997,0.50393707
0.42441857,0.51633984,0.557971,0.40331492,0.27927923,0.26415092,0.47199994,0.503937
0.4244186,0.51633984,0.55797094,0.4033149,0.27927932,0.26415092,0.47200006,0.50393707
0.42441863,0.5163399,0.55797106,0.4033149,0.2792793,0.26415098,0.47199997,0.503937
0.4244186,0.5163399,0.557971,0.4033149,0.27927926,0.26415092,0.472,0.503937
0.42441866,0.51633984,0.55797094,0.4033149,0.27927926,0.26415098,0.472,0.503937
0.4244186,0.5163399,0.55797094,0.4033149,0.27927932,0.26415098,0.472,0.503937
0.4244186,0.51633984,0.55797094,0.4033149,0.27927932,0.26415092,0.472,0.503937
0.4244186,0.51633984,0.55797106,0.4033149,0.27927932,0.26415098,0.472,0.503937
0.47093025,0.5424837,0.63043475,0.5303867,0.5675676,0.5283019,0.62399995,0.5669291
0.47093022,0.5424837,0.6304348,0.53038675,0.5675676,0.5283019,0.624,0.5669291
0.47093025,0.5424836,0.63043475,0.53038675,0.5675676,0.5283019,0.62399995,0.5669291
0.47093025,0.5424837,0.63043475,0.5303868,0.5675675,0.52830195,0.6240001,0.5669291
0.4709302,0.5424837,0.6304348,0.53038675,0.56756747,0.52830195,0.62399995,0.56692916
0.47093022,0.54248375,0.6304348,0.5303867,0.5675676,0.5283019,0.62399995,0.56692916
0.46511626,0.49019605,0.5,0.23204419,0.2882883,0.40251574,0.6,0.5905512
0.46511623,0.4901961,0.5,0.23204422,0.28828833,0.4025157,0.59999996,0.59055114
0.4651163,0.49019608,0.5,0.23204422,0.2882883,0.40251574,0.6000001,0.5905512
0.46511632,0.4901961,0.49999997,0.23204419,0.28828835,0.40251574,0.6,0.59055126
0.46511626,0.49019605,0.49999997,0.23204419,0.2882883,0.40251577,0.6,0.59055114
0.46511626,0.4901961,0.49999994,0.23204419,0.2882883,0.40251574,0.59999996,0.5905512
0.46511623,0.4901961,0.5,0.23204422,0.28828824,0.4025157,0.6,0.59055126
0.46511632,0.49019605,0.49999994,0.23204422,0.28828824,0.40251574,0.6,0.59055114
0.46511623,0.49019608,0.49999997,0.23204422,0.28828824,0.4025157,0.6000001,0.59055114
0.46511626,0.4901961,0.5,0.23204419,0.2882883,0.4025157,0.6,0.5905512
0.46511623,0.49019608,0.5,0.23204422,0.2882883,0.40251577,0.6000001,0.5905512
0.4651163,0.49019617,0.5,0.23204422,0.2882883,0.40251574,0.5999999,0.5905512
0.46511626,0.49019614,0.50000006,0.23204422,0.28828824,0.4025157,0.59999996,0.59055114
0.4651163,0.49019605,0.5,0.23204419,0.2882883,0.4025157,0.6,0.5905512
0.46511626,0.49019602,0.5,0.23204419,0.28828827,0.40251574,0.59999996,0.5905512
0.4651163,0.49019605,0.49999997,0.23204422,0.2882883,0.4025158,0.6,0.5905512
0.4651163,0.49019608,0.49999994,0.23204422,0.28828827,0.40251574,0.59999996,0.5905512
0.46511632,0.4901961,0.5,0.23204422,0.2882883,0.40251574,0.6,0.59055114
0.46511626,0.49019614,0.5,0.23204422,0.28828827,0.40251574,0.59999996,0.59055114
0.4651163,0.49019608,0.49999997,0.23204416,0.28828824,0.4025157,0.6,0.59055114
0.4651163,0.4901961,0.50000006,0.23204416,0.2882883,0.4025157,0.59999996,0.5905512
0.46511626,0.49019608,0.50000006,0.23204419,0.28828827,0.40251574,0.59999996,0.59055114
0.4651163,0.49019614,0.50000006,0.23204419,0.2882883,0.40251577,0.6,0.59055126
0.4476744,0.5228758,0.5797102,0.5082873,0.45045045,0.5597485,0.52000004,0.5511811
0.35465118,0.44444448,0.46376812,0.3314917,0.3828829,0.35849056,0.288,0.3149606
0.35465112,0.44444442,0.46376806,0.33149174,0.3828829,0.3584906,0.288,0.3149606
0.35465118,0.44444448,0.46376815,0.33149165,0.3828829,0.35849053,0.288,0.3149606
0.35465118,0.44444442,0.46376806,0.3314917,0.3828829,0.3584906,0.28800005,0.3149606
0.35465112,0.44444448,0.4637681,0.33149168,0.3828829,0.35849053,0.288,0.3149606
0.35465115,0.44444448,0.46376812,0.33149165,0.38288283,0.35849056,0.28800005,0.31496066
0.35465112,0.44444442,0.4637681,0.33149168,0.38288286,0.3584906,0.28800005,0.31496054
0.35465115,0.44444442,0.47761196,0.3314917,0.38288286,0.3584906,0.28800005,0.3149606
0.35465115,0.44444445,0.4776119,0.3314917,0.3828828,0.3584906,0.28799996,0.31496066
0.35465115,0.44444442,0.47761196,0.33149165,0.3828829,0.35849056,0.28800005,0.31496066
0.35465112,0.44444448,0.47761196,0.3314917,0.3828829,0.35849053,0.28800002,0.31496063
0.35465115,0.44444448,0.47761193,0.3314917,0.38288292,0.35849056,0.28800002,0.3149606
0.35465115,0.44444445,0.477612,0.3314917,0.38288283,0.35849053,0.288,0.3149606
0.35465118,0.44444445,0.47761196,0.33149177,0.3828829,0.35849056,0.28800002,0.31496063
0.48837206,0.5816994,0.6716417,0.6132597,0.6756757,0.70440245,0.584,0.5826772
0.45930234,0.4901961,0.5373135,0.49723765,0.5585585,0.27044025,0.47200003,0.5826772
0.4127907,0.4509804,0.53731346,0.4751381,0.4189189,0.2201258,0.48800004,0.4645669
0.41279072,0.45098042,0.5373134,0.47513813,0.41891888,0.2201258,0.48800004,0.46456686
0.41279066,0.45098042,0.53731346,0.47513813,0.41891888,0.22012581,0.488,0.46456692
0.41279066,0.45098037,0.5373134,0.4751381,0.41891894,0.22012576,0.48799995,0.46456692
0.41279072,0.45098034,0.53731346,0.47513816,0.41891894,0.22012575,0.48800004,0.46456692
0.41279066,0.45098037,0.53731346,0.47513816,0.41891885,0.22012584,0.488,0.46456692
0.4127907,0.4509804,0.53731346,0.4751381,0.4189189,0.2201258,0.488,0.46456695
0.4127907,0.45098042,0.53731346,0.4751381,0.4189189,0.22012581,0.48799998,0.46456695
0.41279066,0.4509804,0.53731346,0.47513813,0.4189189,0.22012573,0.48800004,0.4645669
0.41279066,0.45098045,0.5373134,0.47513807,0.41891888,0.22012578,0.48800007,0.46456692
0.4127907,0.4509804,0.53731346,0.47513813,0.41891888,0.22012578,0.48800004,0.46456698
0.4186046,0.45098045,0.51492536,0.59116024,0.72522515,0.6415094,0.52799994,0.511811
0.41860464,0.45098042,0.5149255,0.59116024,0.72522515,0.6415095,0.52800006,0.511811
0.41860464,0.4509804,0.51492536,0.5911603,0.7252252,0.6415095,0.528,0.511811
0.41860467,0.45098042,0.5149254,0.63313615,0.7252252,0.6415095,0.528,0.511811
0.41860464,0.45098048,0.51492536,0.63313615,0.72522515,0.6415094,0.528,0.511811
0.41860464,0.45098037,0.5149254,0.6331361,0.7252252,0.6415095,0.528,0.5118111
0.41860467,0.45098042,0.5149254,0.6331361,0.7252252,0.64150953,0.52800006,0.511811
0.41860464,0.45098042,0.51492536,0.6331361,0.7252252,0.6415095,0.528,0.511811
0.41860458,0.45098042,0.51492536,0.6331361,0.7252252,0.6415095,0.528,0.511811
0.47093022,0.51633984,0.56716424,0.4674556,0.43243247,0.5094339,0.6,0.6062992
0.47093025,0.5163399,0.5671642,0.46745566,0.4324324,0.509434,0.6,0.6062992
0.47093025,0.5163399,0.5671642,0.4674556,0.4324324,0.509434,0.5999999,0.6062992
0.47093025,0.5163399,0.5671641,0.4674556,0.43243244,0.509434,0.6,0.60629916
0.47093022,0.5163399,0.5671642,0.46745557,0.43243244,0.509434,0.59999996,0.6062992
0.47093025,0.51633984,0.5671642,0.46745566,0.4324324,0.509434,0.6,0.6062992
0.47093025,0.51633984,0.5671642,0.46745563,0.4324324,0.509434,0.6,0.6062992
0.4709302,0.51633984,0.5671642,0.46745563,0.43243238,0.5094339,0.6,0.60629916
0.47093022,0.5163399,0.5671642,0.4674556,0.43243247,0.5094339,0.6,0.6062992
0.47093022,0.51633984,0.5671642,0.4674556,0.4324324,0.509434,0.59999996,0.60629916
0.47093022,0.5163399,0.56716424,0.46745563,0.43243238,0.509434,0.59999996,0.6062992
0.47093022,0.51633984,0.5671642,0.4674556,0.43243247,0.509434,0.6,0.60629916
0.47093022,0.51633984,0.56716424,0.46745563,0.43243238,0.509434,0.6,0.6062992
0.47093025,0.5163399,0.56716424,0.46745566,0.4324324,0.50943404,0.59999996,0.6062992
0.4360465,0.496732,0.5447761,0.408284,0.4234234,0.3207547,0.53599995,0.5354332
0.43604648,0.496732,0.5447762,0.408284,0.4234234,0.32075474,0.536,0.53543305
0.47093022,0.52941173,0.60447764,0.5857988,0.6396397,0.6666666,0.63199997,0.6141732
0.47093022,0.52941173,0.6044777,0.58579874,0.6396397,0.66666675,0.63199997,0.61417323
0.47093028,0.52941173,0.6044776,0.58579886,0.6396397,0.6666667,0.63199997,0.61417323
0.47093022,0.5294118,0.6044776,0.58579874,0.63963956,0.66666675,0.632,0.61417323
0.47093022,0.52941173,0.60447764,0.5857988,0.6396397,0.6666666,0.632,0.61417323
0.47093022,0.5294118,0.60447764,0.58579874,0.6396396,0.6666667,0.63199997,0.61417323
0.47093022,0.5294118,0.60447764,0.58579874,0.6396397,0.6666667,0.6319999,0.6141733
0.47093025,0.52941173,0.6044776,0.5857988,0.6396396,0.6666667,0.632,0.61417323
0.47093022,0.5294118,0.6044775,0.5857988,0.6396396,0.6666667,0.6319999,0.61417323
0.47093022,0.5294118,0.60447764,0.5857988,0.6396397,0.6666667,0.63199997,0.61417323
0.47093025,0.52941173,0.6044776,0.5857988,0.6396396,0.6666667,0.632,0.61417323
0.47093028,0.5294118,0.60447764,0.5857988,0.6396396,0.6666666,0.632,0.6141733
0.47093022,0.52941173,0.6044776,0.58579886,0.6396396,0.6666666,0.63199997,0.6141733
0.4709302,0.5294118,0.6044776,0.5857988,0.6396396,0.66666675,0.63199997,0.6141732
0.47093028,0.5294118,0.60447764,0.5857988,0.6396397,0.6666667,0.63199997,0.61417323
0.47093025,0.52941173,0.6044777,0.5857988,0.63963956,0.6666666,0.63199997,0.6141732
0.4709302,0.5294118,0.60447764,0.5857988,0.6396396,0.6666667,0.632,0.6141733
0.47093022,0.52941173,0.60447764,0.58579874,0.63963956,0.66666675,0.63199997,0.6141733
0.47093022,0.52941173,0.60447764,0.5857988,0.6396396,0.6666666,0.63199997,0.6141733
0.47093022,0.52941173,0.60447764,0.5857988,0.6396396,0.6666667,0.63199997,0.6141732
0.4709302,0.5294118,0.6044776,0.5857988,0.6396396,0.6666667,0.63199997,0.6141733
0.47093025,0.54901963,0.70149255,0.76331353,0.60810804,0.6100629,0.65599996,0.61417323
0.4709302,0.5490197,0.7014925,0.7633136,0.6081081,0.6100629,0.656,0.61417323
0.45348838,0.5359477,0.63432837,0.6213018,0.5585585,0.6163522,0.544,0.5511811
0.45348838,0.5359477,0.63432837,0.62130183,0.5585585,0.6163522,0.54399997,0.5511811
0.45348838,0.53594774,0.63432837,0.6213018,0.5585585,0.6163522,0.544,0.5511811
0.45348835,0.53594774,0.63432837,0.6213018,0.5585586,0.61635226,0.544,0.5511812
0.4534884,0.5359477,0.63432837,0.6213018,0.5585585,0.6163522,0.54399997,0.5511811
0.45348835,0.5359477,0.63432837,0.6213018,0.5585586,0.6163522,0.54399997,0.55118114
0.45348832,0.5359478,0.63432837,0.6213018,0.5585586,0.6163522,0.544,0.5511811
0.45348835,0.5359477,0.63432837,0.62130183,0.55855846,0.6163522,0.544,0.5511811
0.45348838,0.5359478,0.63432837,0.6213017,0.5585585,0.6163522,0.5439999,0.55118114
0.45348838,0.53594774,0.63432837,0.62130183,0.5585585,0.6163522,0.544,0.5511812
0.45348838,0.53594774,0.6343284,0.6213018,0.5585585,0.6163522,0.544,0.55118114
0.45930234,0.5555556,0.59701484,0.4556213,0.28828833,0.34591195,0.56000006,0.55118114
0.4593023,0.5555556,0.5970149,0.45562124,0.2882883,0.34591195,0.56,0.5511811
0.4593023,0.5555555,0.5970149,0.4556213,0.2882883,0.34591195,0.56,0.55118114
0.4593023,0.5555556,0.59701496,0.4556213,0.2882883,0.34591198,0.56,0.5511811
0.4593023,0.5555556,0.5970149,0.45562127,0.28828824,0.34591192,0.56,0.5511811
0.45930234,0.5555556,0.59701496,0.4556213,0.28828827,0.34591198,0.56,0.5511811
0.4593023,0.5555556,0.5970149,0.4556213,0.2882883,0.34591195,0.56,0.5511811
0.4593023,0.5555555,0.59701496,0.4556213,0.28828824,0.34591192,0.55999994,0.55118114
0.45348838,0.5359477,0.6044776,0.57988167,0.61711717,0.61006296,0.584,0.5826771
0.45348835,0.53594774,0.60447764,0.57988167,0.6171171,0.6100629,0.584,0.5826771
0.45348838,0.53594774,0.6044776,0.57988167,0.61711705,0.61006284,0.584,0.5826772
0.45348835,0.53594774,0.60447764,0.5798816,0.6171171,0.6100629,0.58400005,0.5826772
0.45348838,0.53594774,0.60447764,0.57988167,0.61711705,0.61006296,0.58399993,0.58267725
0.45348835,0.53594774,0.60447764,0.5798816,0.61711717,0.6100629,0.584,0.5826772
0.45348835,0.5359476,0.6044776,0.5798816,0.61711705,0.61006296,0.584,0.5826771
0.45348835,0.5359477,0.60447764,0.57988167,0.61711717,0.6100629,0.584,0.5826771
0.45348835,0.53594774,0.6044776,0.57988167,0.6171171,0.6100629,0.584,0.5826772
0.45348838,0.53594774,0.60447764,0.5798816,0.6171171,0.6100629,0.584,0.5826772
0.45348838,0.53594774,0.60447764,0.57988167,0.6171171,0.6100629,0.58399993,0.5826772
0.45348838,0.5359478,0.6044776,0.57988167,0.6171171,0.61006296,0.58400005,0.5826772
0.45348835,0.5359477,0.60447764,0.5798816,0.6171171,0.6100629,0.584,0.5826772
0.45348835,0.5359477,0.60447764,0.57988167,0.6171171,0.6100629,0.584,0.5826772
0.45348835,0.5359478,0.60447764,0.5798816,0.6171171,0.61006284,0.584,0.5826772
0.4651163,0.45751637,0.5447761,0.59763306,0.6666667,0.3584906,0.584,0.5669291
0.46511626,0.45751634,0.5447761,0.59763306,0.6666666,0.35849053,0.584,0.5669291
0.44186044,0.5098039,0.60447764,0.52071,0.4369369,0.29559746,0.49599996,0.51968503
0.44186047,0.5098039,0.6044776,0.52071005,0.43693697,0.29559746,0.49599996,0.51968503
0.44186047,0.5098039,0.6044776,0.5207101,0.4369369,0.2955975,0.496,0.5196851
0.44186047,0.50980395,0.6044776,0.5207101,0.43693691,0.2955975,0.496,0.51968503
0.44186044,0.5098039,0.6044776,0.52071005,0.43693691,0.2955975,0.49600005,0.5196851
0.44186047,0.50980395,0.60447764,0.52071005,0.43693691,0.29559746,0.49599993,0.51968503
0.44186047,0.5098039,0.60447764,0.52071005,0.43693697,0.2955975,0.496,0.51968503
0.4418605,0.50980395,0.60447764,0.52071005,0.4369369,0.2955975,0.496,0.5196851
0.4418604,0.50980395,0.6044776,0.52071005,0.43693691,0.2955975,0.496,0.51968503
0.44186044,0.5098039,0.60447764,0.5207101,0.43693691,0.2955975,0.49600002,0.51968503
0.44186044,0.50980395,0.60447764,0.5207101,0.43693694,0.2955975,0.49600002,0.51968503
0.44186044,0.509804,0.60447764,0.52071005,0.43693694,0.2955975,0.49600002,0.51968503
0.44186044,0.50980395,0.60447764,0.52071005,0.43693691,0.2955975,0.49600002,0.51968503
0.44186044,0.5098039,0.60447764,0.52071005,0.43693697,0.2955975,0.49599996,0.51968503
0.44186047,0.50980395,0.60447764,0.52071005,0.4369369,0.29559743,0.49600002,0.519685
0.44186044,0.50980395,0.6044776,0.52071,0.43693691,0.2955975,0.496,0.51968503
0.44186044,0.50980395,0.6044776,0.5207101,0.43693691,0.2955975,0.496,0.5196851
0.44186047,0.5098039,0.60447764,0.52071005,0.4369369,0.29559746,0.49600005,0.5196851
0.4418604,0.5098039,0.60447764,0.52071,0.43693691,0.2955975,0.496,0.5196851
0.44186047,0.5098039,0.6044776,0.52071005,0.43693691,0.29559746,0.496,0.51968503
0.44186047,0.5098039,0.60447764,0.52071,0.43693691,0.29559752,0.496,0.5196851
0.4360465,0.49019605,0.5522388,0.43195266,0.45045045,0.4591195,0.49599996,0.49606305
0.41860464,0.44444448,0.55970156,0.668639,0.68018013,0.38993713,0.664,0.5905512
0.41860464,0.44444448,0.5597015,0.66863906,0.68018013,0.3899371,0.664,0.59055126
0.41860464,0.44444448,0.55970144,0.66863894,0.6801802,0.38993707,0.664,0.59055114
0.41860464,0.44444448,0.5597015,0.66863906,0.6801802,0.38993713,0.66400003,0.5905512
0.41860464,0.4444445,0.55970156,0.668639,0.6801802,0.3899371,0.66400003,0.5905512
0.41860467,0.44444445,0.5597015,0.66863906,0.68018013,0.38993713,0.6639999,0.5905512
0.41860464,0.44444445,0.5597015,0.66863906,0.6801802,0.38993713,0.664,0.59055114
0.4186046,0.44444448,0.55970144,0.66863906,0.68018013,0.3899371,0.66400003,0.59055114
0.41860467,0.44444442,0.5597015,0.668639,0.6801802,0.38993713,0.66400003,0.5905512
0.4186046,0.44444448,0.5597015,0.668639,0.6801802,0.38993713,0.664,0.59055114
0.41860464,0.44444442,0.5597015,0.668639,0.6801802,0.3899371,0.664,0.5905512
0.41860467,0.44444442,0.5597015,0.66863906,0.68018013,0.38993713,0.664,0.59055114
0.44767442,0.5686274,0.6492537,0.5325444,0.472973,0.4402516,0.488,0.53543305
0.44767442,0.5686274,0.6492538,0.5325444,0.47297296,0.44025156,0.48799998,0.53543305
0.44767436,0.5686275,0.6492538,0.5325444,0.47297293,0.44025162,0.488,0.53543305
0.4476744,0.5686275,0.64925367,0.5325444,0.472973,0.44025156,0.48799998,0.5354331
0.4476744,0.5686274,0.64925367,0.53254443,0.472973,0.4402516,0.48799998,0.535433
0.44767442,0.5686274,0.64925367,0.5325444,0.47297293,0.4402516,0.488,0.53543305
0.4476744,0.5686275,0.6492537,0.5325443,0.472973,0.44025153,0.48799998,0.53543305
0.44767442,0.5686275,0.6492537,0.5325444,0.472973,0.44025156,0.48799995,0.5354331
0.4418605,0.49019614,0.5298508,0.40236682,0.26126125,0.2830189,0.48800004,0.5354331
0.44767442,0.5424836,0.6492538,0.6568047,0.6756757,0.5345912,0.6079999,0.5905512
0.4476744,0.5424837,0.6492538,0.6568047,0.67567563,0.53459126,0.60800004,0.5905512
0.4476744,0.5424837,0.6492537,0.6568047,0.6756757,0.53459126,0.60800004,0.59055114
0.44767442,0.5424837,0.64925367,0.65680474,0.67567563,0.53459114,0.6079999,0.5905512
0.44767442,0.5424837,0.6492537,0.65680474,0.6756757,0.5345912,0.60800004,0.59055126
0.44767442,0.5424837,0.6492537,0.65680474,0.67567563,0.5345912,0.60800004,0.5905511
0.4476744,0.5424837,0.6492537,0.6568047,0.67567563,0.5345912,0.608,0.5905512
0.4476744,0.5424837,0.6492537,0.65680474,0.67567563,0.5345912,0.608,0.5905512
0.4476744,0.5424837,0.6492537,0.65680474,0.6756757,0.5345912,0.60800004,0.59055114
0.44767442,0.5424836,0.6492537,0.65680474,0.6756757,0.5345912,0.608,0.5905512
0.44767445,0.5424837,0.6492537,0.65680474,0.67567563,0.5345912,0.608,0.59055114
0.4476744,0.5424837,0.6492536,0.65680474,0.67567575,0.53459126,0.608,0.5905512
0.44767442,0.5424837,0.64925367,0.65680474,0.67567563,0.53459114,0.60800004,0.5905512
0.4476744,0.5424837,0.6492538,0.6568047,0.67567563,0.5345912,0.60800004,0.59055114
0.4360465,0.52941173,0.52238804,0.5266272,0.47747746,0.37106916,0.52800006,0.53543305
0.43604654,0.52941173,0.52238804,0.5266271,0.47747746,0.37106922,0.528,0.53543305
0.43604654,0.52941173,0.52238804,0.52662724,0.47747746,0.37106916,0.528,0.5354331
0.43604648,0.5294118,0.5223881,0.52662724,0.47747752,0.3710692,0.528,0.5354331
0.4360465,0.52941173,0.52238804,0.5266272,0.47747746,0.37106916,0.528,0.53543305
0.4360465,0.5294118,0.52238804,0.52662724,0.4774775,0.3710692,0.528,0.5354331
0.4069767,0.47058824,0.5298508,0.4615385,0.44144136,0.45911953,0.52000004,0.4803149
0.44767442,0.5816994,0.6268657,0.57988167,0.48198196,0.33333337,0.52000004,0.5354331
0.4476744,0.58169943,0.6268656,0.5798816,0.481982,0.33333334,0.52,0.535433
0.44767442,0.5816994,0.6268656,0.57988167,0.481982,0.3333333,0.52000004,0.5354331
